0.015
0.030
0.005
-0.020
-0.050
-0.055
-0.050
-0.050
0.000
-0.025
-0.025
-0.005
0.015
-0.010
-0.040
-0.020
-0.025
-0.025
-0.025
-0.035
-0.045
-0.025
-0.015
-0.035
-0.065
-0.070
-0.005
0.080
0.010
-0.350
-0.985
-1.625
-2.265
-2.845
-3.210
-3.125
-2.550
-1.915
-1.405
-1.055
-0.785
-0.575
-0.445
-0.350
-0.265
-0.210
-0.120
-0.040
0.015
0.095
0.150
0.160
0.220
0.245
0.240
0.245
0.265
0.290
0.320
0.325
0.330
0.335
0.355
0.380
0.405
0.405
0.430
0.430
0.425
0.480
0.480
0.500
0.515
0.555
0.575
0.600
0.645
0.680
0.705
0.740
0.780
0.810
0.845
0.855
0.880
0.900
0.900
0.885
0.875
0.865
0.795
0.770
0.700
0.640
0.575
0.495
0.435
0.390
0.340
0.295
0.240
0.215
0.200
0.165
0.150
0.110
0.110
0.135
0.100
0.090
0.070
0.075
0.090
0.090
0.080
0.090
0.095
0.090
0.070
0.070
0.080
0.085
0.090
0.080
0.100
0.070
0.090
0.055
0.065
0.060
0.060
0.050
0.060
0.040
0.045
0.060
0.030
0.045
0.035
0.025
0.015
0.010
0.025
0.030
0.030
0.040
0.085
0.070
0.120
0.120
0.115
0.095
0.070
0.050
0.035
0.020
0.005
-0.035
-0.045
-0.055
-0.050
-0.040
-0.010
-0.035
-0.040
-0.015
0.000
-0.015
-0.020
-0.035
-0.020
-0.035
-0.030
-0.020
-0.040
-0.030
-0.050
-0.065
-0.080
-0.075
0.000
0.080
-0.030
-0.405
-1.020
-1.660
-2.255
-2.805
-3.135
-3.015
-2.395
-1.765
-1.265
-0.955
-0.720
-0.540
-0.435
-0.340
-0.280
-0.205
-0.150
-0.070
0.000
0.065
0.090
0.125
0.155
0.175
0.200
0.185
0.200
0.215
0.240
0.235
0.245
0.265
0.270
0.275
0.325
0.300
0.335
0.340
0.350
0.375
0.405
0.435
0.455
0.455
0.495
0.510
0.540
0.595
0.635
0.665
0.690
0.705
0.735
0.760
0.745
0.780
0.810
0.795
0.805
0.750
0.715
0.660
0.565
0.520
0.455
0.390
0.320
0.270
0.215
0.160
0.140
0.095
0.065
0.060
0.045
0.025
0.010
0.005
0.000
0.000
-0.005
0.005
-0.015
-0.010
0.000
0.010
-0.010
0.005
0.000
0.000
0.000
-0.005
-0.005
0.000
-0.015
0.000
-0.020
-0.015
0.000
-0.020
-0.020
-0.010
0.005
-0.020
-0.025
-0.030
-0.025
-0.025
-0.040
-0.035
-0.035
-0.055
-0.060
-0.050
-0.035
0.000
0.025
0.035
0.055
0.070
0.050
0.030
0.020
-0.020
-0.030
-0.045
-0.085
-0.075
-0.100
-0.100
-0.075
-0.070
-0.070
-0.085
-0.085
-0.045
-0.040
-0.045
-0.060
-0.085
-0.055
-0.085
-0.065
-0.060
-0.070
-0.095
-0.085
-0.105
-0.110
-0.055
0.015
0.015
-0.255
-0.810
-1.440
-2.080
-2.655
-3.105
-3.235
-2.805
-2.170
-1.585
-1.180
-0.890
-0.665
-0.530
-0.435
-0.355
-0.265
-0.215
-0.115
-0.050
0.050
0.085
0.125
0.165
0.175
0.200
0.205
0.220
0.210
0.240
0.240
0.245
0.280
0.280
0.310
0.315
0.340
0.345
0.350
0.370
0.380
0.425
0.435
0.445
0.470
0.515
0.550
0.560
0.580
0.640
0.670
0.705
0.725
0.750
0.775
0.810
0.825
0.830
0.855
0.855
0.805
0.770
0.710
0.660
0.575
0.510
0.445
0.360
0.330
0.270
0.195
0.170
0.140
0.110
0.090
0.070
0.040
0.035
0.015
0.015
0.010
0.020
0.020
0.010
0.010
0.020
0.010
0.010
0.020
0.000
0.000
0.000
0.005
0.015
0.015
0.000
0.015
-0.005
-0.010
0.000
0.005
0.005
0.000
0.000
0.000
0.000
-0.030
-0.025
-0.015
-0.030
-0.065
-0.060
-0.045
-0.040
-0.025
-0.015
0.020
0.015
0.050
0.075
0.040
0.015
-0.010
-0.050
-0.065
-0.085
-0.085
-0.130
-0.125
-0.125
-0.130
-0.125
-0.120
-0.140
-0.125
-0.090
-0.090
-0.100
-0.115
-0.130
-0.105
-0.150
-0.120
-0.125
-0.120
-0.140
-0.130
-0.185
-0.180
-0.155
-0.055
-0.055
-0.305
-0.830
-1.465
-2.105
-2.730
-3.175
-3.230
-2.735
-2.100
-1.530
-1.175
-0.900
-0.695
-0.540
-0.465
-0.370
-0.290
-0.240
-0.150
-0.080
-0.025
0.025
0.055
0.095
0.105
0.105
0.130
0.155
0.165
0.195
0.195
0.210
0.240
0.245
0.250
0.275
0.270
0.310
0.340
0.345
0.325
0.370
0.400
0.425
0.455
0.495
0.520
0.535
0.600
0.610
0.640
0.665
0.690
0.725
0.755
0.780
0.795
0.810
0.780
0.755
0.760
0.730
0.675
0.620
0.555
0.485
0.410
0.350
0.310
0.250
0.205
0.155
0.130
0.085
0.075
0.060
0.060
0.020
0.035
0.025
0.040
0.035
0.005
0.010
0.030
0.015
0.005
0.010
0.005
0.025
0.045
0.040
0.025
0.025
0.010
0.015
0.025
0.030
0.010
0.015
0.025
0.020
0.010
0.015
-0.005
0.005
0.020
0.020
0.020
0.000
-0.010
-0.010
0.005
0.020
0.030
0.080
0.080
0.075
0.090
0.090
0.075
0.050
0.015
0.010
0.000
-0.035
-0.070
-0.080
-0.075
-0.055
-0.070
-0.035
-0.030
-0.040
-0.040
-0.020
-0.030
-0.050
-0.065
-0.080
-0.090
-0.075
-0.070
-0.075
-0.085
-0.080
-0.105
-0.110
-0.110
-0.045
0.025
-0.060
-0.470
-1.045
-1.685
-2.325
-2.860
-3.190
-2.985
-2.350
-1.750
-1.325
-0.985
-0.730
-0.580
-0.460
-0.370
-0.295
-0.230
-0.135
-0.055
0.005
0.060
0.105
0.120
0.155
0.175
0.180
0.220
0.215
0.235
0.265
0.265
0.275
0.275
0.275
0.290
0.310
0.335
0.350
0.355
0.375
0.390
0.430
0.425
0.475
0.490
0.565
0.575
0.590
0.605
0.655
0.675
0.730
0.760
0.770
0.800
0.810
0.820
0.825
0.840
0.815
0.815
0.735
0.670
0.625
0.565
0.465
0.380
0.325
0.265
0.220
0.185
0.155
0.120
0.070
0.050
0.035
0.045
0.005
0.010
0.005
-0.020
-0.010
0.000
-0.020
-0.005
0.000
0.005
0.000
-0.010
-0.030
-0.020
-0.030
0.000
0.020
0.010
0.000
-0.015
0.000
0.000
0.000
-0.005
-0.020
-0.025
-0.030
-0.035
-0.040
-0.020
-0.035
-0.040
-0.035
-0.010
-0.040
-0.020
0.000
0.005
0.040
0.055
0.080
0.050
0.030
0.005
-0.020
-0.050
-0.060
-0.085
-0.100
-0.105
-0.135
-0.130
-0.085
-0.080
-0.095
-0.100
-0.110
-0.065
-0.060
-0.075
-0.100
-0.075
-0.070
-0.080
-0.105
-0.085
-0.095
-0.105
-0.110
-0.120
-0.130
-0.105
-0.020
-0.020
-0.290
-0.860
-1.500
-2.140
-2.780
-3.260
-3.335
-2.835
-2.200
-1.635
-1.245
-0.975
-0.770
-0.590
-0.480
-0.370
-0.295
-0.195
-0.140
-0.055
0.010
0.075
0.125
0.155
0.175
0.185
0.230
0.245
0.235
0.245
0.270
0.290
0.300
0.315
0.320
0.325
0.365
0.375
0.365
0.370
0.425
0.440
0.465
0.495
0.530
0.530
0.560
0.610
0.660
0.700
0.725
0.750
0.790
0.835
0.875
0.895
0.920
0.935
0.940
0.955
0.930
0.885
0.840
0.800
0.715
0.635
0.555
0.485
0.420
0.375
0.305
0.255
0.215
0.175
0.135
0.120
0.110
0.090
0.080
0.060
0.045
0.065
0.085
0.075
0.045
0.050
0.050
0.060
0.070
0.055
0.045
0.060
0.070
0.055
0.060
0.040
0.060
0.050
0.060
0.050
0.045
0.040
0.045
0.055
0.045
0.040
0.035
0.020
0.005
-0.005
0.025
0.025
0.040
0.080
0.055
0.095
0.095
0.080
0.090
0.085
0.070
0.055
0.035
0.025
0.000
-0.015
-0.025
-0.055
-0.075
-0.045
-0.045
-0.030
-0.050
-0.055
-0.020
-0.015
-0.020
-0.055
-0.045
-0.055
-0.055
-0.060
-0.065
-0.070
-0.075
-0.105
-0.105
-0.105
-0.100
-0.005
0.045
-0.130
-0.630
-1.260
-1.900
-2.515
-3.015
-3.170
-2.755
-2.120
-1.580
-1.165
-0.855
-0.640
-0.510
-0.395
-0.305
-0.260
-0.190
-0.105
-0.030
0.020
0.075
0.120
0.140
0.160
0.180
0.200
0.215
0.215
0.220
0.210
0.220
0.255
0.260
0.275
0.295
0.315
0.310
0.335
0.330
0.345
0.390
0.405
0.435
0.465
0.500
0.500
0.520
0.570
0.590
0.615
0.645
0.685
0.690
0.730
0.750
0.775
0.780
0.805
0.795
0.770
0.725
0.685
0.630
0.550
0.510
0.440
0.390
0.335
0.265
0.220
0.180
0.135
0.085
0.055
0.055
0.035
0.015
0.005
0.000
-0.020
-0.010
0.000
-0.020
-0.035
-0.030
-0.050
-0.030
-0.030
-0.035
-0.030
-0.020
-0.035
-0.020
-0.035
-0.030
-0.050
-0.030
-0.015
-0.045
-0.035
-0.020
-0.045
-0.035
-0.060
-0.065
-0.040
-0.045
-0.055
-0.075
-0.090
-0.070
-0.065
-0.055
-0.055
-0.030
-0.005
0.015
0.025
0.015
0.010
0.000
-0.035
-0.050
-0.085
-0.100
-0.095
-0.125
-0.125
-0.125
-0.120
-0.080
-0.095
-0.100
-0.105
-0.065
-0.080
-0.080
-0.105
-0.115
-0.115
-0.145
-0.125
-0.110
-0.140
-0.115
-0.135
-0.140
-0.170
-0.125
-0.040
-0.080
-0.375
-0.925
-1.565
-2.205
-2.815
-3.205
-3.180
-2.655
-2.020
-1.485
-1.135
-0.880
-0.690
-0.525
-0.450
-0.365
-0.305
-0.225
-0.150
-0.080
0.000
0.040
0.070
0.090
0.120
0.145
0.165
0.165
0.175
0.210
0.200
0.240
0.230
0.240
0.265
0.265
0.260
0.270
0.295
0.340
0.355
0.365
0.395
0.410
0.430
0.465
0.475
0.515
0.540
0.555
0.630
0.670
0.695
0.705
0.750
0.745
0.780
0.775
0.780
0.760
0.720
0.685
0.655
0.590
0.535
0.440
0.380
0.330
0.265
0.210
0.150
0.100
0.060
0.055
0.020
0.000
-0.015
-0.010
-0.020
-0.035
-0.050
-0.065
-0.040
-0.040
-0.050
-0.065
-0.045
-0.040
-0.060
-0.040
-0.060
-0.045
-0.050
-0.050
-0.055
-0.050
-0.045
-0.065
-0.065
-0.050
-0.060
-0.065
-0.075
-0.065
-0.090
-0.080
-0.090
-0.095
-0.105
-0.105
-0.115
-0.090
-0.080
-0.090
-0.080
-0.035
-0.010
-0.035
-0.005
-0.005
-0.045
-0.080
-0.110
-0.115
-0.150
-0.175
-0.215
-0.235
-0.210
-0.195
-0.170
-0.160
-0.175
-0.165
-0.155
-0.145
-0.135
-0.150
-0.180
-0.165
-0.150
-0.175
-0.180
-0.190
-0.185
-0.205
-0.240
-0.240
-0.185
-0.115
-0.145
-0.420
-0.975
-1.615
-2.255
-2.885
-3.335
-3.360
-2.865
-2.230
-1.675
-1.290
-1.025
-0.825
-0.660
-0.545
-0.450
-0.395
-0.320
-0.235
-0.140
-0.095
-0.025
0.025
0.065
0.070
0.090
0.090
0.085
0.130
0.145
0.125
0.130
0.155
0.165
0.185
0.195
0.245
0.230
0.235
0.255
0.290
0.295
0.325
0.345
0.365
0.405
0.440
0.470
0.495
0.540
0.575
0.615
0.635
0.660
0.700
0.730
0.750
0.770
0.775
0.770
0.765
0.725
0.680
0.610
0.560
0.460
0.415
0.345
0.265
0.205
0.145
0.105
0.050
0.040
0.015
-0.030
-0.025
-0.040
-0.060
-0.050
-0.035
-0.060
-0.045
-0.065
-0.050
-0.070
-0.075
-0.060
-0.055
-0.050
-0.065
-0.080
-0.070
-0.070
-0.075
-0.070
-0.045
-0.070
-0.065
-0.050
-0.070
-0.060
-0.080
-0.080
-0.050
-0.065
-0.035
-0.040
-0.075
-0.080
-0.100
-0.095
-0.075
-0.060
-0.055
-0.055
-0.045
-0.010
-0.020
-0.020
-0.005
0.015
-0.025
-0.065
-0.065
-0.080
-0.125
-0.155
-0.150
-0.150
-0.150
-0.135
-0.125
-0.120
-0.130
-0.100
-0.105
-0.125
-0.130
-0.145
-0.130
-0.140
-0.125
-0.145
-0.125
-0.125
-0.145
-0.155
-0.185
-0.150
-0.065
-0.030
-0.225
-0.670
-1.310
-1.950
-2.590
-3.145
-3.400
-3.075
-2.440
-1.805
-1.380
-1.050
-0.815
-0.640
-0.530
-0.420
-0.355
-0.285
-0.190
-0.120
-0.035
0.015
0.055
0.085
0.100
0.130
0.145
0.165
0.185
0.180
0.195
0.210
0.215
0.230
0.225
0.255
0.265
0.285
0.305
0.315
0.335
0.340
0.350
0.400
0.415
0.470
0.470
0.500
0.540
0.550
0.595
0.640
0.685
0.700
0.720
0.735
0.735
0.790
0.800
0.795
0.775
0.745
0.705
0.625
0.595
0.505
0.465
0.360
0.310
0.265
0.195
0.145
0.095
0.065
0.045
0.015
0.010
-0.005
-0.025
-0.025
-0.035
-0.035
-0.055
-0.050
-0.055
-0.060
-0.035
-0.040
-0.045
-0.040
-0.030
-0.030
-0.050
-0.060
-0.065
-0.050
-0.050
-0.055
-0.045
-0.030
-0.060
-0.070
-0.080
-0.080
-0.080
-0.075
-0.075
-0.080
-0.110
-0.120
-0.100
-0.095
-0.080
-0.070
-0.055
-0.035
-0.020
-0.005
0.005
0.005
0.010
-0.020
-0.075
-0.095
-0.110
-0.145
-0.145
-0.195
-0.205
-0.200
-0.175
-0.170
-0.165
-0.145
-0.150
-0.145
-0.140
-0.145
-0.160
-0.155
-0.160
-0.165
-0.165
-0.160
-0.145
-0.160
-0.190
-0.210
-0.240
-0.200
-0.095
-0.070
-0.320
-0.860
-1.495
-2.135
-2.775
-3.270
-3.410
-3.015
-2.380
-1.770
-1.365
-1.080
-0.860
-0.650
-0.535
-0.440
-0.375
-0.300
-0.225
-0.125
-0.025
0.035
0.050
0.085
0.110
0.140
0.155
0.165
0.185
0.195
0.205
0.240
0.235
0.235
0.250
0.255
0.290
0.310
0.315
0.355
0.365
0.385
0.390
0.425
0.465
0.475
0.500
0.535
0.590
0.605
0.630
0.680
0.710
0.750
0.790
0.810
0.810
0.835
0.840
0.830
0.825
0.780
0.740
0.700
0.660
0.570
0.495
0.420
0.370
0.310
0.275
0.210
0.165
0.095
0.065
0.045
0.025
0.005
0.015
0.000
0.000
-0.010
-0.030
-0.015
-0.010
-0.010
-0.030
-0.015
-0.030
-0.040
-0.040
-0.025
-0.040
-0.040
-0.040
-0.030
-0.020
-0.025
-0.030
-0.040
-0.030
-0.035
-0.020
-0.030
-0.045
-0.060
-0.040
-0.075
-0.070
-0.035
-0.065
-0.070
-0.060
-0.045
-0.045
-0.015
0.010
0.050
0.015
0.005
0.025
0.010
-0.025
-0.050
-0.060
-0.065
-0.085
-0.140
-0.150
-0.170
-0.140
-0.125
-0.105
-0.110
-0.105
-0.105
-0.100
-0.110
-0.130
-0.135
-0.130
-0.115
-0.110
-0.135
-0.115
-0.155
-0.160
-0.170
-0.190
-0.185
-0.125
-0.030
-0.175
-0.600
-1.240
-1.880
-2.520
-3.095
-3.390
-3.195
-2.560
-1.975
-1.515
-1.205
-0.945
-0.755
-0.620
-0.515
-0.425
-0.315
-0.235
-0.140
-0.040
0.005
0.030
0.055
0.100
0.130
0.155
0.150
0.175
0.180
0.205
0.225
0.225
0.245
0.255
0.290
0.290
0.285
0.290
0.305
0.335
0.365
0.370
0.420
0.425
0.450
0.485
0.530
0.545
0.570
0.620
0.655
0.695
0.705
0.740
0.765
0.795
0.815
0.840
0.840
0.820
0.775
0.740
0.680
0.615
0.560
0.515
0.435
0.375
0.305
0.235
0.195
0.145
0.120
0.110
0.055
0.040
0.035
0.035
0.020
0.010
0.000
-0.005
-0.010
-0.035
-0.030
-0.010
-0.015
0.000
-0.015
-0.015
-0.025
-0.025
-0.020
-0.025
-0.025
-0.020
-0.015
-0.025
-0.035
-0.025
-0.040
-0.040
-0.060
-0.060
-0.055
-0.085
-0.070
-0.070
-0.060
-0.065
-0.050
-0.050
-0.065
-0.040
-0.050
-0.030
-0.005
0.035
0.020
0.030
0.015
0.000
-0.010
-0.030
-0.040
-0.040
-0.080
-0.110
-0.115
-0.145
-0.100
-0.095
-0.080
-0.095
-0.080
-0.100
-0.090
-0.080
-0.075
-0.085
-0.105
-0.100
-0.105
-0.120
-0.110
-0.110
-0.105
-0.115
-0.150
-0.130
-0.060
0.010
-0.065
-0.490
-1.130
-1.770
-2.410
-3.050
-3.420
-3.245
-2.610
-2.015
-1.525
-1.190
-0.920
-0.705
-0.540
-0.440
-0.345
-0.275
-0.180
-0.115
-0.015
0.035
0.095
0.130
0.170
0.190
0.210
0.205
0.235
0.245
0.275
0.270
0.285
0.295
0.315
0.315
0.345
0.350
0.375
0.395
0.405
0.420
0.455
0.465
0.495
0.525
0.540
0.580
0.630
0.675
0.705
0.750
0.770
0.795
0.805
0.815
0.815
0.840
0.845
0.840
0.850
0.830
0.770
0.730
0.670
0.610
0.535
0.450
0.385
0.340
0.295
0.245
0.200
0.160
0.120
0.080
0.025
0.020
0.020
0.025
0.020
0.005
0.005
0.005
-0.005
-0.015
0.025
0.000
-0.010
0.000
0.025
0.010
0.010
-0.015
-0.015
-0.010
0.000
-0.030
-0.010
-0.005
-0.020
-0.035
-0.025
-0.015
-0.025
-0.025
-0.040
-0.060
-0.065
-0.035
-0.060
-0.050
-0.055
-0.055
-0.050
-0.030
-0.020
0.000
0.025
0.045
0.020
0.035
-0.005
-0.025
-0.070
-0.075
-0.080
-0.095
-0.130
-0.140
-0.140
-0.135
-0.135
-0.135
-0.130
-0.125
-0.100
-0.100
-0.105
-0.120
-0.125
-0.145
-0.130
-0.140
-0.155
-0.130
-0.130
-0.145
-0.190
-0.180
-0.175
-0.085
-0.030
-0.195
-0.635
-1.255
-1.895
-2.505
-3.025
-3.325
-3.100
-2.525
-1.955
-1.535
-1.205
-0.980
-0.775
-0.635
-0.510
-0.425
-0.345
-0.260
-0.170
-0.070
-0.030
0.025
0.055
0.085
0.115
0.145
0.145
0.165
0.185
0.175
0.195
0.200
0.215
0.240
0.245
0.290
0.280
0.275
0.300
0.325
0.360
0.385
0.420
0.460
0.485
0.505
0.490
0.530
0.580
0.670
0.725
0.740
0.735
0.735
0.705
0.745
0.840
0.880
0.875
0.790
0.765
0.715
0.660
0.635
0.605
0.575
0.495
0.385
0.270
0.200
0.180
0.180
0.205
0.145
0.090
0.005
-0.030
-0.045
-0.035
-0.065
-0.010
0.000
-0.015
-0.020
-0.025
-0.020
-0.020
-0.010
-0.020
-0.055
-0.040
-0.045
-0.040
-0.040
-0.020
-0.030
-0.015
-0.015
-0.050
-0.030
-0.040
-0.025
-0.035
-0.025
-0.035
-0.040
-0.070
-0.080
-0.075
-0.080
-0.070
-0.050
-0.060
-0.050
-0.065
-0.025
-0.020
-0.020
0.005
0.025
0.015
0.015
-0.035
-0.070
-0.075
-0.105
-0.125
-0.140
-0.155
-0.175
-0.130
-0.135
-0.110
-0.135
-0.110
-0.085
-0.075
-0.025
0.000
-0.005
-0.105
-0.150
-0.160
-0.155
-0.160
-0.170
-0.155
-0.190
-0.180
-0.170
-0.080
-0.040
-0.255
-0.735
-1.375
-2.015
-2.655
-3.210
-3.455
-3.125
-2.490
-1.855
-1.400
-1.085
-0.880
-0.700
-0.600
-0.480
-0.405
-0.330
-0.245
-0.160
-0.075
-0.005
0.075
0.085
0.125
0.140
0.155
0.155
0.175
0.190
0.200
0.215
0.245
0.250
0.255
0.260
0.280
0.310
0.315
0.325
0.330
0.360
0.375
0.405
0.440
0.460
0.485
0.525
0.550
0.565
0.595
0.650
0.690
0.710
0.745
0.770
0.800
0.805
0.815
0.815
0.820
0.775
0.750
0.675
0.610
0.515
0.435
0.375
0.325
0.260
0.185
0.120
0.075
0.055
0.005
0.000
-0.050
-0.060
-0.070
-0.075
-0.075
-0.080
-0.080
-0.075
-0.080
-0.070
-0.090
-0.095
-0.110
-0.105
-0.095
-0.090
-0.080
-0.095
-0.085
-0.080
-0.060
-0.050
-0.030
-0.005
0.025
0.060
0.090
0.135
0.180
0.150
0.170
0.190
0.255
0.355
0.490
0.685
0.895
1.095
1.330
1.565
1.835
2.080
2.155
2.080
1.885
1.700
1.515
1.265
0.925
0.565
0.220
-0.105
-0.365
-0.480
-0.505
-0.440
-0.420
-0.400
-0.375
-0.390
-0.420
-0.490
-0.560
-0.600
-0.595
-0.615
-0.600
-0.630
-0.640
-0.640
-0.660
-0.675
-0.680
-0.695
-0.700
-0.750
-0.775
-0.775
-0.785
-0.790
-0.805
-0.830
-0.850
-0.880
-0.890
-0.870
-0.905
-0.905
-0.920
-0.920
-0.945
-0.945
-0.970
-0.925
-0.935
-0.900
-0.895
-0.875
-0.835
-0.795
-0.750
-0.695
-0.615
-0.560
-0.450
-0.400
-0.320
-0.265
-0.215
-0.180
-0.140
-0.120
-0.130
-0.125
-0.120
-0.110
-0.110
-0.125
-0.125
-0.115
-0.125
-0.115
-0.105
-0.120
-0.110
-0.110
-0.120
-0.115
-0.125
-0.140
-0.125
-0.145
-0.135
-0.155
-0.130
-0.115
-0.145
-0.120
-0.140
-0.165
-0.160
-0.160
-0.150
-0.165
-0.175
-0.185
-0.175
-0.185
-0.165
-0.175
-0.195
-0.190
-0.180
-0.185
-0.165
-0.185
-0.185
-0.205
-0.205
-0.200
-0.210
-0.205
-0.215
-0.210
-0.210
-0.215
-0.190
-0.205
-0.210
-0.200
-0.210
-0.195
-0.235
-0.230
-0.215
-0.240
-0.225
-0.235
-0.230
-0.240
-0.245
-0.250
-0.230
-0.235
-0.225
-0.235
-0.260
-0.245
-0.235
-0.230
-0.210
-0.230
-0.215
-0.180
-0.175
-0.150
-0.150
-0.130
-0.150
-0.160
-0.185
-0.230
-0.245
-0.250
-0.280
-0.320
-0.305
-0.310
-0.290
-0.290
-0.270
-0.265
-0.280
-0.245
-0.260
-0.280
-0.270
-0.310
-0.310
-0.290
-0.295
-0.285
-0.285
-0.305
-0.325
-0.350
-0.360
-0.275
-0.205
-0.315
-0.715
-1.355
-1.995
-2.635
-3.185
-3.530
-3.465
-2.925
-2.330
-1.865
-1.500
-1.230
-1.025
-0.855
-0.765
-0.655
-0.595
-0.475
-0.395
-0.295
-0.235
-0.190
-0.130
-0.100
-0.080
-0.080
-0.070
-0.060
-0.060
-0.065
-0.050
-0.045
0.000
0.010
-0.015
-0.015
0.005
0.025
0.035
0.070
0.075
0.105
0.110
0.110
0.105
0.130
0.185
0.190
0.230
0.270
0.280
0.350
0.365
0.405
0.415
0.455
0.465
0.490
0.550
0.575
0.590
0.635
0.610
0.535
0.515
0.465
0.440
0.365
0.335
0.245
0.175
0.090
0.035
-0.020
-0.065
-0.110
-0.130
-0.185
-0.200
-0.205
-0.205
-0.245
-0.265
-0.275
-0.290
-0.230
-0.220
-0.230
-0.290
-0.310
-0.355
-0.360
-0.320
-0.305
-0.285
-0.300
-0.335
-0.330
-0.340
-0.310
-0.315
-0.325
-0.335
-0.300
-0.310
-0.295
-0.320
-0.310
-0.315
-0.325
-0.370
-0.350
-0.350
-0.320
-0.295
-0.265
-0.270
-0.265
-0.230
-0.230
-0.230
-0.245
-0.285
-0.305
-0.320
-0.355
-0.415
-0.450
-0.450
-0.460
-0.435
-0.400
-0.395
-0.395
-0.400
-0.365
-0.390
-0.390
-0.420
-0.420
-0.385
-0.370
-0.385
-0.390
-0.410
-0.430
-0.465
-0.475
-0.500
-0.470
-0.375
-0.365
-0.630
-1.170
-1.810
-2.450
-3.090
-3.515
-3.530
-3.050
-2.415
-1.920
-1.575
-1.305
-1.115
-0.955
-0.830
-0.780
-0.715
-0.630
-0.490
-0.400
-0.315
-0.270
-0.235
-0.220
-0.205
-0.180
-0.180
-0.170
-0.145
-0.110
-0.080
-0.065
-0.065
-0.070
-0.080
-0.060
-0.055
-0.035
0.000
0.010
0.035
0.090
0.085
0.095
0.130
0.185
0.220
0.285
0.315
0.335
0.360
0.390
0.425
0.475
0.525
0.555
0.565
0.575
0.565
0.535
0.530
0.465
0.390
0.295
0.230
0.140
0.065
0.025
-0.015
-0.065
-0.105
-0.175
-0.250
-0.295
-0.325
-0.305
-0.330
-0.315
-0.325
-0.350
-0.370
-0.390
-0.375
-0.380
-0.360
-0.360
-0.375
-0.370
-0.370
-0.385
-0.370
-0.375
-0.385
-0.380
-0.360
-0.370
-0.365
-0.400
-0.410
-0.390
-0.415
-0.400
-0.400
-0.400
-0.420
-0.400
-0.405
-0.395
-0.400
-0.400
-0.425
-0.430
-0.400
-0.400
-0.380
-0.355
-0.335
-0.315
-0.310
-0.320
-0.330
-0.325
-0.375
-0.410
-0.435
-0.435
-0.465
-0.485
-0.500
-0.495
-0.480
-0.440
-0.440
-0.450
-0.445
-0.430
-0.440
-0.425
-0.445
-0.450
-0.460
-0.475
-0.445
-0.465
-0.455
-0.440
-0.470
-0.485
-0.500
-0.460
-0.395
-0.390
-0.655
-1.195
-1.835
-2.475
-3.115
-3.575
-3.670
-3.185
-2.550
-1.915
-1.530
-1.305
-1.105
-0.970
-0.845
-0.770
-0.680
-0.600
-0.510
-0.430
-0.345
-0.300
-0.235
-0.210
-0.200
-0.175
-0.140
-0.120
-0.105
-0.105
-0.095
-0.100
-0.070
-0.040
-0.025
-0.010
0.005
0.005
0.010
0.040
0.060
0.080
0.095
0.105
0.135
0.185
0.215
0.260
0.295
0.310
0.330
0.375
0.395
0.435
0.450
0.490
0.515
0.545
0.565
0.545
0.535
0.500
0.470
0.405
0.330
0.250
0.200
0.115
0.055
0.000
-0.050
-0.100
-0.125
-0.175
-0.220
-0.235
-0.240
-0.265
-0.275
-0.270
-0.280
-0.270
-0.270
-0.275
-0.295
-0.270
-0.275
-0.265
-0.285
-0.275
-0.275
-0.295
-0.265
-0.260
-0.300
-0.285
-0.280
-0.260
-0.270
-0.295
-0.260
-0.285
-0.280
-0.295
-0.285
-0.310
-0.310
-0.300
-0.295
-0.280
-0.295
-0.295
-0.270
-0.285
-0.265
-0.250
-0.245
-0.215
-0.205
-0.180
-0.220
-0.210
-0.265
-0.285
-0.310
-0.320
-0.335
-0.365
-0.395
-0.385
-0.370
-0.340
-0.320
-0.345
-0.345
-0.320
-0.315
-0.330
-0.345
-0.330
-0.350
-0.365
-0.355
-0.355
-0.365
-0.390
-0.375
-0.405
-0.430
-0.395
-0.310
-0.325
-0.610
-1.185
-1.825
-2.465
-3.105
-3.510
-3.545
-3.110
-2.475
-1.900
-1.535
-1.260
-1.070
-0.915
-0.780
-0.680
-0.590
-0.500
-0.400
-0.315
-0.230
-0.175
-0.140
-0.085
-0.095
-0.060
-0.035
-0.010
-0.015
0.000
0.025
0.025
0.030
0.055
0.060
0.085
0.100
0.100
0.145
0.175
0.165
0.215
0.215
0.270
0.270
0.305
0.350
0.385
0.430
0.490
0.515
0.535
0.570
0.595
0.610
0.660
0.705
0.710
0.715
0.690
0.690
0.650
0.600
0.535
0.440
0.370
0.290
0.215
0.135
0.070
0.020
-0.030
-0.090
-0.090
-0.130
-0.165
-0.185
-0.185
-0.205
-0.185
-0.185
-0.200
-0.225
-0.225
-0.225
-0.200
-0.195
-0.210
-0.225
-0.225
-0.210
-0.220
-0.225
-0.210
-0.210
-0.215
-0.210
-0.225
-0.220
-0.215
-0.220
-0.210
-0.225
-0.215
-0.195
-0.210
-0.200
-0.220
-0.220
-0.220
-0.190
-0.190
-0.210
-0.195
-0.185
-0.165
-0.145
-0.120
-0.110
-0.090
-0.125
-0.150
-0.180
-0.180
-0.210
-0.225
-0.235
-0.250
-0.255
-0.265
-0.225
-0.225
-0.240
-0.225
-0.200
-0.210
-0.205
-0.215
-0.210
-0.240
-0.225
-0.220
-0.230
-0.225
-0.205
-0.210
-0.240
-0.265
-0.255
-0.230
-0.130
-0.195
-0.575
-1.185
-1.825
-2.465
-3.105
-3.470
-3.385
-2.785
-2.150
-1.575
-1.215
-1.000
-0.815
-0.655
-0.520
-0.450
-0.390
-0.295
-0.200
-0.115
-0.020
0.035
0.035
0.085
0.125
0.140
0.140
0.170
0.190
0.200
0.210
0.230
0.255
0.270
0.275
0.305
0.310
0.340
0.335
0.375
0.390
0.410
0.450
0.460
0.480
0.520
0.545
0.570
0.600
0.635
0.670
0.700
0.715
0.780
0.805
0.830
0.835
0.870
0.895
0.905
0.885
0.825
0.785
0.725
0.660
0.600
0.525
0.445
0.380
0.290
0.240
0.205
0.155
0.115
0.090
0.070
0.045
0.025
0.020
0.005
0.010
-0.010
0.000
0.000
-0.005
-0.005
-0.010
0.005
-0.010
0.000
-0.005
-0.020
-0.020
-0.020
-0.020
0.000
0.000
-0.005
-0.010
-0.035
-0.015
-0.025
-0.010
-0.025
-0.010
-0.030
-0.025
-0.060
-0.045
-0.055
-0.060
-0.065
-0.055
-0.055
-0.020
-0.015
0.010
0.020
0.045
0.035
0.055
0.030
0.010
-0.010
-0.025
-0.010
-0.035
-0.045
-0.080
-0.100
-0.095
-0.085
-0.070
-0.070
-0.070
-0.045
-0.030
-0.035
-0.040
-0.060
-0.080
-0.070
-0.070
-0.080
-0.050
-0.060
-0.060
-0.080
-0.120
-0.120
-0.060
0.030
-0.060
-0.465
-1.105
-1.745
-2.385
-3.025
-3.325
-3.165
-2.570
-1.985
-1.535
-1.170
-0.910
-0.695
-0.525
-0.410
-0.335
-0.225
-0.150
-0.055
0.025
0.080
0.125
0.175
0.210
0.220
0.240
0.270
0.275
0.310
0.325
0.325
0.360
0.375
0.395
0.425
0.430
0.470
0.465
0.480
0.515
0.510
0.555
0.590
0.605
0.625
0.675
0.700
0.740
0.785
0.825
0.865
0.870
0.915
0.960
0.985
1.000
1.010
1.025
1.015
0.995
1.010
0.950
0.900
0.810
0.730
0.675
0.585
0.510
0.470
0.395
0.350
0.315
0.285
0.260
0.235
0.205
0.185
0.170
0.160
0.155
0.155
0.165
0.165
0.140
0.140
0.145
0.165
0.130
0.135
0.150
0.140
0.165
0.155
0.165
0.165
0.170
0.165
0.150
0.130
0.135
0.130
0.145
0.140
0.140
0.150
0.140
0.135
0.145
0.140
0.135
0.135
0.125
0.115
0.155
0.190
0.185
0.210
0.230
0.230
0.215
0.210
0.200
0.165
0.175
0.140
0.140
0.110
0.095
0.080
0.110
0.095
0.130
0.125
0.100
0.120
0.140
0.130
0.115
0.150
0.135
0.120
0.105
0.120
0.115
0.130
0.120
0.085
0.060
0.070
0.140
0.235
0.105
-0.290
-0.870
-1.505
-2.085
-2.600
-2.855
-2.630
-2.060
-1.515
-1.075
-0.750
-0.535
-0.355
-0.240
-0.150
-0.065
-0.010
0.065
0.140
0.190
0.220
0.280
0.300
0.335
0.355
0.385
0.375
0.390
0.375
0.405
0.435
0.445
0.460
0.445
0.475
0.470
0.480
0.505
0.490
0.530
0.555
0.570
0.600
0.635
0.680
0.670
0.695
0.735
0.775
0.790
0.830
0.845
0.870
0.900
0.935
0.960
0.935
0.955
0.920
0.905
0.905
0.855
0.780
0.725
0.670
0.600
0.515
0.500
0.455
0.395
0.335
0.320
0.270
0.255
0.225
0.220
0.190
0.185
0.180
0.185
0.165
0.155
0.150
0.155
0.175
0.155
0.185
0.160
0.160
0.130
0.145
0.150
0.170
0.170
0.155
0.155
0.160
0.160
0.150
0.155
0.155
0.120
0.135
0.120
0.120
0.115
0.105
0.110
0.130
0.115
0.120
0.120
0.110
0.130
0.150
0.175
0.195
0.200
0.210
0.190
0.175
0.115
0.100
0.075
0.070
0.040
0.015
0.015
0.015
0.030
0.040
0.030
0.035
0.045
0.055
0.070
0.060
0.055
0.035
0.030
0.025
0.030
0.025
0.010
0.030
0.015
-0.005
-0.015
0.030
0.110
0.065
-0.240
-0.815
-1.455
-2.095
-2.695
-3.090
-3.080
-2.565
-1.930
-1.415
-1.070
-0.810
-0.605
-0.455
-0.345
-0.260
-0.200
-0.100
-0.030
0.060
0.115
0.185
0.220
0.245
0.260
0.270
0.295
0.290
0.325
0.335
0.345
0.350
0.365
0.375
0.385
0.420
0.410
0.435
0.455
0.465
0.485
0.510
0.550
0.570
0.595
0.615
0.655
0.665
0.725
0.775
0.785
0.820
0.855
0.890
0.915
0.945
0.955
0.965
0.960
0.955
0.935
0.845
0.805
0.740
0.680
0.610
0.505
0.460
0.390
0.320
0.255
0.225
0.175
0.130
0.090
0.075
0.050
0.070
0.045
0.025
0.025
0.045
0.050
0.010
-0.010
0.025
0.000
0.010
0.015
0.020
0.020
0.000
-0.005
0.000
-0.005
-0.015
-0.010
-0.015
-0.020
-0.030
-0.025
-0.030
-0.035
-0.060
-0.055
-0.075
-0.055
-0.070
-0.080
-0.095
-0.080
-0.105
-0.090
-0.090
-0.065
-0.055
-0.040
-0.010
-0.005
-0.005
-0.030
-0.055
-0.070
-0.115
-0.135
-0.140
-0.150
-0.175
-0.190
-0.210
-0.230
-0.195
-0.190
-0.175
-0.190
-0.170
-0.175
-0.175
-0.185
-0.200
-0.205
-0.205
-0.185
-0.215
-0.230
-0.250
-0.250
-0.265
-0.280
-0.230
-0.160
-0.200
-0.475
-1.090
-1.730
-2.370
-3.010
-3.460
-3.485
-2.990
-2.360
-1.830
-1.470
-1.175
-0.965
-0.790
-0.670
-0.585
-0.495
-0.425
-0.335
-0.230
-0.150
-0.105
-0.060
-0.055
-0.020
0.000
0.015
0.040
0.035
0.045
0.060
0.050
0.085
0.085
0.090
0.120
0.115
0.140
0.155
0.170
0.180
0.190
0.225
0.250
0.290
0.300
0.325
0.355
0.395
0.430
0.450
0.490
0.530
0.550
0.565
0.600
0.605
0.635
0.620
0.635
0.590
0.555
0.505
0.460
0.375
0.275
0.190
0.095
0.035
-0.030
-0.085
-0.125
-0.185
-0.230
-0.255
-0.280
-0.315
-0.300
-0.310
-0.325
-0.330
-0.330
-0.350
-0.350
-0.375
-0.360
-0.345
-0.370
-0.385
-0.375
-0.360
-0.380
-0.375
-0.375
-0.385
-0.390
-0.390
-0.400
-0.385
-0.410
-0.405
-0.410
-0.430
-0.410
-0.415
-0.430
-0.435
-0.430
-0.445
-0.445
-0.425
-0.435
-0.450
-0.445
-0.425
-0.405
-0.405
-0.375
-0.370
-0.350
-0.370
-0.380
-0.405
-0.440
-0.450
-0.485
-0.465
-0.505
-0.505
-0.545
-0.530
-0.535
-0.505
-0.520
-0.525
-0.535
-0.510
-0.515
-0.520
-0.525
-0.540
-0.565
-0.550
-0.545
-0.540
-0.560
-0.565
-0.585
-0.610
-0.595
-0.540
-0.460
-0.605
-1.040
-1.680
-2.320
-2.960
-3.470
-3.715
-3.490
-2.895
-2.330
-1.890
-1.595
-1.410
-1.230
-1.075
-0.980
-0.875
-0.770
-0.640
-0.550
-0.490
-0.450
-0.390
-0.380
-0.360
-0.350
-0.315
-0.305
-0.290
-0.280
-0.250
-0.255
-0.245
-0.225
-0.220
-0.215
-0.185
-0.165
-0.160
-0.145
-0.125
-0.105
-0.075
-0.045
-0.025
-0.025
0.030
0.060
0.075
0.130
0.170
0.200
0.240
0.270
0.260
0.285
0.315
0.315
0.300
0.310
0.285
0.245
0.180
0.085
0.060
-0.020
-0.105
-0.185
-0.230
-0.295
-0.350
-0.385
-0.425
-0.455
-0.495
-0.505
-0.510
-0.535
-0.560
-0.545
-0.555
-0.560
-0.575
-0.555
-0.570
-0.585
-0.575
-0.590
-0.590
-0.580
-0.575
-0.575
-0.575
-0.590
-0.560
-0.570
-0.570
-0.585
-0.575
-0.565
-0.580
-0.575
-0.590
-0.600
-0.600
-0.595
-0.590
-0.600
-0.640
-0.650
-0.635
-0.640
-0.620
-0.615
-0.625
-0.605
-0.590
-0.570
-0.570
-0.550
-0.535
-0.550
-0.560
-0.590
-0.625
-0.615
-0.655
-0.680
-0.700
-0.705
-0.745
-0.725
-0.695
-0.685
-0.700
-0.710
-0.700
-0.670
-0.700
-0.715
-0.695
-0.710
-0.740
-0.725
-0.725
-0.725
-0.755
-0.750
-0.780
-0.795
-0.730
-0.635
-0.670
-0.990
-1.515
-2.155
-2.775
-3.280
-3.655
-3.735
-3.345
-2.745
-2.240
-1.995
-1.750
-1.540
-1.355
-1.260
-1.120
-1.015
-0.920
-0.825
-0.755
-0.645
-0.590
-0.535
-0.520
-0.510
-0.500
-0.450
-0.415
-0.425
-0.410
-0.390
-0.380
-0.360
-0.360
-0.370
-0.335
-0.320
-0.305
-0.295
-0.250
-0.260
-0.235
-0.240
-0.185
-0.150
-0.125
-0.110
-0.070
-0.040
-0.005
0.030
0.050
0.075
0.095
0.150
0.160
0.190
0.200
0.205
0.215
0.165
0.135
0.100
0.040
-0.030
-0.075
-0.160
-0.220
-0.275
-0.330
-0.380
-0.425
-0.465
-0.505
-0.500
-0.540
-0.535
-0.555
-0.565
-0.570
-0.580
-0.600
-0.595
-0.570
-0.565
-0.590
-0.585
-0.585
-0.600
-0.590
-0.590
-0.555
-0.570
-0.570
-0.560
-0.590
-0.590
-0.580
-0.565
-0.550
-0.590
-0.595
-0.600
-0.580
-0.595
-0.570
-0.585
-0.590
-0.600
-0.575
-0.590
-0.620
-0.590
-0.610
-0.590
-0.555
-0.525
-0.535
-0.495
-0.485
-0.470
-0.475
-0.515
-0.545
-0.555
-0.560
-0.570
-0.590
-0.605
-0.635
-0.620
-0.595
-0.585
-0.580
-0.570
-0.580
-0.565
-0.560
-0.560
-0.580
-0.570
-0.595
-0.585
-0.565
-0.565
-0.565
-0.595
-0.585
-0.615
-0.625
-0.585
-0.500
-0.455
-0.685
-1.190
-1.830
-2.470
-3.085
-3.510
-3.675
-3.365
-2.745
-2.170
-1.760
-1.510
-1.330
-1.150
-1.005
-0.895
-0.795
-0.705
-0.625
-0.535
-0.475
-0.400
-0.350
-0.305
-0.280
-0.280
-0.270
-0.245
-0.220
-0.190
-0.155
-0.150
-0.170
-0.165
-0.120
-0.110
-0.095
-0.070
-0.060
-0.050
-0.025
0.000
0.010
0.035
0.070
0.110
0.115
0.155
0.185
0.225
0.260
0.305
0.335
0.390
0.415
0.440
0.470
0.480
0.490
0.495
0.475
0.445
0.380
0.305
0.220
0.165
0.090
0.050
-0.035
-0.110
-0.160
-0.215
-0.235
-0.265
-0.300
-0.330
-0.355
-0.355
-0.380
-0.380
-0.360
-0.380
-0.380
-0.370
-0.365
-0.375
-0.390
-0.395
-0.365
-0.355
-0.350
-0.370
-0.365
-0.375
-0.360
-0.370
-0.375
-0.370
-0.375
-0.370
-0.355
-0.355
-0.365
-0.380
-0.380
-0.380
-0.370
-0.385
-0.375
-0.385
-0.385
-0.380
-0.370
-0.385
-0.380
-0.385
-0.365
-0.340
-0.345
-0.310
-0.300
-0.295
-0.280
-0.300
-0.310
-0.375
-0.375
-0.400
-0.425
-0.430
-0.430
-0.440
-0.445
-0.405
-0.395
-0.390
-0.390
-0.385
-0.385
-0.365
-0.365
-0.370
-0.385
-0.385
-0.400
-0.395
-0.405
-0.390
-0.420
-0.415
-0.435
-0.445
-0.390
-0.330
-0.345
-0.675
-1.250
-1.890
-2.530
-3.170
-3.550
-3.560
-3.105
-2.470
-1.945
-1.560
-1.260
-1.055
-0.885
-0.765
-0.685
-0.580
-0.495
-0.405
-0.300
-0.210
-0.195
-0.155
-0.090
-0.075
-0.055
-0.035
-0.015
0.000
0.030
0.015
0.065
0.075
0.065
0.075
0.115
0.125
0.145
0.145
0.195
0.205
0.220
0.245
0.255
0.295
0.335
0.365
0.395
0.425
0.465
0.510
0.555
0.580
0.640
0.660
0.680
0.700
0.710
0.720
0.740
0.735
0.680
0.650
0.605
0.535
0.460
0.375
0.315
0.250
0.180
0.130
0.070
0.040
-0.010
-0.045
-0.070
-0.065
-0.070
-0.105
-0.100
-0.085
-0.110
-0.110
-0.115
-0.100
-0.105
-0.095
-0.120
-0.120
-0.080
-0.070
-0.080
-0.080
-0.080
-0.065
-0.090
-0.080
-0.075
-0.110
-0.100
-0.080
-0.095
-0.090
-0.100
-0.095
-0.100
-0.100
-0.080
-0.085
-0.090
-0.105
-0.105
-0.110
-0.100
-0.095
-0.115
-0.085
-0.070
-0.075
-0.040
-0.020
0.000
0.000
-0.010
-0.040
-0.070
-0.080
-0.100
-0.105
-0.115
-0.155
-0.135
-0.170
-0.130
-0.130
-0.125
-0.135
-0.145
-0.130
-0.120
-0.140
-0.140
-0.140
-0.125
-0.160
-0.150
-0.135
-0.125
-0.140
-0.140
-0.165
-0.215
-0.170
-0.070
-0.045
-0.215
-0.730
-1.370
-2.010
-2.650
-3.205
-3.390
-3.095
-2.460
-1.880
-1.485
-1.185
-0.910
-0.715
-0.550
-0.450
-0.355
-0.260
-0.155
-0.065
0.020
0.085
0.105
0.150
0.165
0.175
0.195
0.220
0.235
0.240
0.275
0.275
0.285
0.315
0.325
0.325
0.335
0.365
0.365
0.365
0.410
0.445
0.445
0.490
0.515
0.550
0.560
0.590
0.645
0.670
0.700
0.750
0.780
0.810
0.870
0.900
0.905
0.910
0.945
0.925
0.915
0.890
0.860
0.790
0.700
0.660
0.595
0.505
0.430
0.375
0.320
0.250
0.210
0.180
0.140
0.145
0.105
0.075
0.060
0.045
0.045
0.020
0.025
0.020
0.015
0.025
0.015
0.005
0.005
0.025
0.040
0.030
0.035
0.025
0.020
0.030
0.030
0.055
0.050
0.035
0.025
0.035
0.015
0.025
0.010
0.010
0.015
0.000
0.020
0.025
0.025
0.000
0.010
0.015
0.025
0.015
0.035
0.045
0.065
0.075
0.110
0.130
0.135
0.130
0.105
0.075
0.060
0.040
0.030
0.010
-0.005
-0.035
-0.050
-0.025
-0.015
-0.020
0.000
0.000
-0.015
0.015
0.020
0.010
0.000
0.005
0.025
0.010
0.015
0.030
0.005
0.000
-0.005
-0.015
-0.030
0.015
0.125
0.105
-0.180
-0.755
-1.395
-2.035
-2.635
-3.050
-3.100
-2.650
-2.015
-1.475
-1.110
-0.800
-0.575
-0.415
-0.315
-0.230
-0.135
-0.050
0.050
0.130
0.205
0.255
0.270
0.315
0.330
0.350
0.360
0.375
0.375
0.405
0.415
0.440
0.455
0.465
0.465
0.475
0.490
0.525
0.535
0.535
0.555
0.575
0.615
0.620
0.645
0.665
0.715
0.745
0.750
0.815
0.845
0.865
0.910
0.935
0.945
0.965
0.995
1.005
1.025
1.000
0.970
0.920
0.855
0.845
0.760
0.675
0.620
0.565
0.490
0.430
0.385
0.365
0.300
0.315
0.275
0.240
0.210
0.220
0.200
0.180
0.185
0.180
0.170
0.170
0.170
0.160
0.175
0.190
0.160
0.160
0.180
0.180
0.170
0.160
0.165
0.180
0.170
0.170
0.170
0.165
0.160
0.140
0.190
0.165
0.165
0.150
0.150
0.150
0.150
0.135
0.135
0.135
0.125
0.130
0.115
0.140
0.160
0.180
0.195
0.220
0.265
0.250
0.220
0.205
0.160
0.150
0.125
0.115
0.080
0.045
0.035
0.035
0.050
0.065
0.055
0.070
0.055
0.090
0.080
0.055
0.060
0.050
0.030
0.040
0.035
0.035
0.020
0.025
0.010
0.015
-0.025
0.005
0.055
0.105
-0.015
-0.420
-1.060
-1.700
-2.340
-2.905
-3.185
-2.995
-2.425
-1.840
-1.390
-1.070
-0.820
-0.620
-0.460
-0.340
-0.245
-0.175
-0.050
0.030
0.130
0.190
0.225
0.270
0.315
0.310
0.340
0.375
0.390
0.415
0.425
0.400
0.435
0.445
0.455
0.470
0.490
0.510
0.515
0.545
0.555
0.565
0.600
0.635
0.690
0.690
0.725
0.765
0.785
0.835
0.860
0.890
0.950
0.975
1.015
1.045
1.065
1.085
1.105
1.120
1.075
1.060
1.010
0.980
0.895
0.840
0.760
0.650
0.570
0.515
0.465
0.405
0.340
0.305
0.280
0.275
0.245
0.250
0.210
0.215
0.205
0.215
0.205
0.190
0.180
0.170
0.185
0.175
0.185
0.185
0.205
0.190
0.195
0.190
0.195
0.195
0.185
0.185
0.180
0.180
0.190
0.160
0.170
0.195
0.190
0.165
0.185
0.180
0.185
0.150
0.150
0.175
0.170
0.175
0.170
0.185
0.200
0.195
0.230
0.265
0.260
0.275
0.260
0.270
0.225
0.190
0.170
0.170
0.135
0.120
0.100
0.105
0.090
0.120
0.155
0.145
0.150
0.160
0.160
0.145
0.150
0.150
0.135
0.130
0.125
0.140
0.135
0.115
0.130
0.120
0.110
0.110
0.110
0.225
0.205
-0.095
-0.680
-1.320
-1.960
-2.600
-3.165
-3.175
-2.650
-2.015
-1.435
-1.060
-0.755
-0.530
-0.340
-0.225
-0.140
-0.070
0.020
0.110
0.215
0.275
0.320
0.355
0.395
0.425
0.430
0.450
0.470
0.465
0.490
0.500
0.495
0.525
0.530
0.545
0.560
0.575
0.590
0.600
0.630
0.625
0.655
0.700
0.705
0.750
0.765
0.800
0.825
0.875
0.895
0.955
0.970
1.010
1.040
1.065
1.075
1.105
1.140
1.135
1.120
1.110
1.050
1.015
0.965
0.890
0.770
0.720
0.650
0.575
0.475
0.420
0.400
0.335
0.295
0.275
0.260
0.230
0.225
0.215
0.215
0.195
0.195
0.185
0.190
0.190
0.165
0.180
0.190
0.200
0.195
0.175
0.170
0.190
0.155
0.170
0.170
0.185
0.170
0.150
0.160
0.160
0.155
0.130
0.145
0.135
0.130
0.135
0.130
0.135
0.115
0.120
0.135
0.145
0.125
0.100
0.105
0.105
0.125
0.160
0.165
0.185
0.190
0.200
0.205
0.195
0.155
0.140
0.115
0.090
0.095
0.045
0.020
0.050
0.035
0.055
0.075
0.065
0.040
0.065
0.080
0.055
0.080
0.060
0.060
0.055
0.060
0.070
0.070
0.075
0.065
0.035
0.015
0.030
0.060
0.150
0.035
-0.370
-1.010
-1.650
-2.290
-2.930
-3.380
-3.240
-2.605
-1.970
-1.405
-1.085
-0.815
-0.620
-0.460
-0.335
-0.240
-0.140
-0.065
0.020
0.120
0.175
0.235
0.280
0.295
0.305
0.330
0.360
0.355
0.355
0.380
0.395
0.410
0.435
0.450
0.455
0.475
0.475
0.495
0.495
0.525
0.545
0.545
0.580
0.600
0.630
0.660
0.695
0.750
0.790
0.840
0.855
0.910
0.920
0.965
0.990
1.005
1.030
1.035
1.065
1.015
1.005
0.965
0.900
0.830
0.770
0.685
0.600
0.505
0.435
0.380
0.305
0.265
0.240
0.175
0.155
0.105
0.090
0.065
0.085
0.070
0.055
0.045
0.045
0.055
0.030
0.050
0.050
0.045
0.035
0.035
0.015
0.025
0.020
0.015
0.020
0.010
0.015
0.005
0.005
0.010
0.000
-0.010
-0.020
-0.020
-0.015
-0.020
-0.025
-0.045
-0.020
-0.030
-0.045
-0.035
-0.040
-0.055
-0.050
-0.030
-0.040
-0.025
-0.010
0.005
-0.005
0.005
0.000
0.000
-0.020
-0.055
-0.080
-0.100
-0.120
-0.160
-0.165
-0.185
-0.185
-0.165
-0.145
-0.160
-0.160
-0.165
-0.145
-0.170
-0.185
-0.200
-0.195
-0.185
-0.180
-0.190
-0.210
-0.220
-0.245
-0.250
-0.255
-0.240
-0.170
-0.090
-0.270
-0.750
-1.390
-2.030
-2.670
-3.200
-3.465
-3.230
-2.595
-1.985
-1.550
-1.220
-1.005
-0.815
-0.655
-0.575
-0.480
-0.405
-0.330
-0.225
-0.150
-0.105
-0.095
-0.035
-0.025
0.000
0.020
0.020
0.025
0.035
0.030
0.065
0.070
0.080
0.080
0.105
0.110
0.100
0.130
0.150
0.150
0.170
0.175
0.205
0.225
0.260
0.290
0.325
0.360
0.380
0.400
0.420
0.475
0.505
0.520
0.550
0.560
0.570
0.585
0.570
0.545
0.535
0.460
0.420
0.345
0.270
0.195
0.140
0.085
0.010
-0.030
-0.080
-0.140
-0.170
-0.175
-0.210
-0.235
-0.255
-0.265
-0.265
-0.280
-0.300
-0.290
-0.310
-0.305
-0.300
-0.330
-0.320
-0.315
-0.320
-0.325
-0.330
-0.315
-0.310
-0.320
-0.340
-0.330
-0.345
-0.320
-0.320
-0.330
-0.350
-0.360
-0.345
-0.375
-0.370
-0.350
-0.355
-0.355
-0.385
-0.375
-0.375
-0.360
-0.345
-0.370
-0.390
-0.380
-0.385
-0.350
-0.365
-0.325
-0.340
-0.305
-0.280
-0.310
-0.300
-0.315
-0.355
-0.395
-0.390
-0.430
-0.435
-0.470
-0.470
-0.490
-0.460
-0.460
-0.450
-0.465
-0.460
-0.460
-0.435
-0.440
-0.435
-0.460
-0.455
-0.455
-0.465
-0.435
-0.440
-0.445
-0.490
-0.480
-0.510
-0.470
-0.395
-0.375
-0.595
-1.150
-1.790
-2.430
-3.070
-3.535
-3.685
-3.325
-2.690
-2.100
-1.710
-1.425
-1.190
-1.015
-0.885
-0.800
-0.715
-0.605
-0.530
-0.430
-0.345
-0.280
-0.250
-0.230
-0.210
-0.180
-0.170
-0.135
-0.120
-0.125
-0.115
-0.110
-0.105
-0.065
-0.075
-0.070
-0.055
-0.010
-0.015
0.005
0.020
0.035
0.055
0.095
0.095
0.150
0.195
0.215
0.240
0.275
0.320
0.350
0.370
0.425
0.445
0.485
0.480
0.515
0.530
0.525
0.500
0.480
0.410
0.365
0.315
0.235
0.135
0.065
0.000
-0.050
-0.135
-0.170
-0.240
-0.260
-0.300
-0.320
-0.350
-0.350
-0.370
-0.380
-0.360
-0.370
-0.375
-0.370
-0.390
-0.380
-0.395
-0.400
-0.385
-0.390
-0.395
-0.365
-0.365
-0.400
-0.415
-0.405
-0.425
-0.400
-0.385
-0.415
-0.440
-0.415
-0.415
-0.425
-0.390
-0.425
-0.385
-0.415
-0.425
-0.425
-0.420
-0.415
-0.430
-0.420
-0.445
-0.470
-0.455
-0.430
-0.415
-0.400
-0.390
-0.375
-0.365
-0.335
-0.330
-0.380
-0.400
-0.425
-0.440
-0.450
-0.465
-0.500
-0.535
-0.550
-0.515
-0.485
-0.465
-0.480
-0.505
-0.490
-0.490
-0.465
-0.445
-0.465
-0.480
-0.460
-0.450
-0.490
-0.485
-0.475
-0.495
-0.490
-0.500
-0.515
-0.470
-0.400
-0.425
-0.775
-1.410
-2.050
-2.690
-3.325
-3.665
-3.640
-3.100
-2.465
-1.885
-1.550
-1.295
-1.120
-0.940
-0.850
-0.750
-0.665
-0.575
-0.480
-0.400
-0.320
-0.240
-0.210
-0.160
-0.160
-0.135
-0.120
-0.105
-0.070
-0.075
-0.050
-0.040
-0.005
-0.010
0.025
0.025
0.020
0.035
0.075
0.080
0.110
0.135
0.160
0.190
0.205
0.240
0.290
0.305
0.335
0.370
0.415
0.470
0.515
0.535
0.560
0.600
0.630
0.660
0.675
0.645
0.625
0.620
0.585
0.500
0.400
0.345
0.265
0.200
0.095
0.025
-0.020
-0.075
-0.105
-0.145
-0.190
-0.225
-0.240
-0.235
-0.250
-0.255
-0.250
-0.270
-0.260
-0.250
-0.245
-0.290
-0.285
-0.260
-0.290
-0.275
-0.285
-0.280
-0.260
-0.260
-0.285
-0.255
-0.275
-0.265
-0.260
-0.265
-0.250
-0.240
-0.265
-0.250
-0.255
-0.270
-0.260
-0.280
-0.270
-0.275
-0.265
-0.280
-0.265
-0.270
-0.290
-0.285
-0.280
-0.280
-0.280
-0.255
-0.235
-0.205
-0.200
-0.195
-0.170
-0.190
-0.215
-0.255
-0.275
-0.270
-0.275
-0.320
-0.310
-0.340
-0.320
-0.320
-0.290
-0.315
-0.330
-0.295
-0.290
-0.315
-0.305
-0.315
-0.315
-0.320
-0.320
-0.320
-0.310
-0.295
-0.325
-0.335
-0.370
-0.380
-0.355
-0.250
-0.210
-0.415
-0.910
-1.550
-2.190
-2.830
-3.470
-3.665
-3.385
-2.750
-2.115
-1.655
-1.315
-1.075
-0.880
-0.745
-0.625
-0.555
-0.450
-0.375
-0.270
-0.205
-0.130
-0.090
-0.030
-0.010
0.000
0.005
0.035
0.030
0.045
0.065
0.075
0.085
0.115
0.125
0.160
0.135
0.185
0.195
0.205
0.245
0.255
0.295
0.310
0.330
0.360
0.400
0.410
0.470
0.495
0.525
0.580
0.580
0.630
0.675
0.700
0.715
0.740
0.760
0.745
0.735
0.695
0.655
0.600
0.525
0.440
0.355
0.285
0.225
0.170
0.105
0.035
-0.005
-0.060
-0.110
-0.125
-0.165
-0.165
-0.170
-0.185
-0.195
-0.225
-0.220
-0.205
-0.180
-0.200
-0.200
-0.195
-0.195
-0.200
-0.205
-0.205
-0.190
-0.175
-0.195
-0.190
-0.180
-0.190
-0.195
-0.185
-0.205
-0.205
-0.225
-0.205
-0.205
-0.205
-0.200
-0.200
-0.225
-0.215
-0.235
-0.235
-0.250
-0.250
-0.240
-0.255
-0.235
-0.230
-0.225
-0.195
-0.185
-0.160
-0.100
-0.120
-0.145
-0.160
-0.175
-0.205
-0.210
-0.215
-0.255
-0.255
-0.285
-0.285
-0.290
-0.265
-0.255
-0.255
-0.245
-0.245
-0.235
-0.240
-0.270
-0.260
-0.250
-0.270
-0.255
-0.255
-0.265
-0.255
-0.275
-0.290
-0.320
-0.300
-0.205
-0.145
-0.230
-0.640
-1.280
-1.920
-2.560
-3.155
-3.485
-3.365
-2.775
-2.155
-1.655
-1.330
-1.045
-0.840
-0.700
-0.580
-0.475
-0.410
-0.325
-0.235
-0.160
-0.070
-0.050
-0.015
0.015
0.015
0.055
0.080
0.085
0.115
0.130
0.130
0.150
0.160
0.180
0.185
0.220
0.215
0.240
0.265
0.265
0.285
0.305
0.325
0.350
0.385
0.410
0.450
0.485
0.515
0.560
0.585
0.610
0.635
0.685
0.685
0.715
0.735
0.755
0.740
0.725
0.720
0.655
0.625
0.535
0.470
0.430
0.350
0.270
0.205
0.150
0.120
0.055
0.020
0.000
-0.025
-0.040
-0.055
-0.065
-0.060
-0.090
-0.090
-0.100
-0.090
-0.095
-0.100
-0.095
-0.095
-0.085
-0.075
-0.075
-0.090
-0.095
-0.095
-0.110
-0.105
-0.075
-0.090
-0.090
-0.090
-0.095
-0.090
-0.100
-0.100
-0.105
-0.105
-0.115
-0.120
-0.120
-0.130
-0.110
-0.120
-0.135
-0.120
-0.135
-0.155
-0.155
-0.160
-0.110
-0.105
-0.105
-0.085
-0.050
-0.050
-0.070
-0.055
-0.105
-0.120
-0.125
-0.145
-0.180
-0.200
-0.235
-0.220
-0.240
-0.215
-0.175
-0.150
-0.200
-0.195
-0.175
-0.190
-0.195
-0.185
-0.210
-0.200
-0.195
-0.220
-0.210
-0.205
-0.225
-0.235
-0.260
-0.260
-0.190
-0.130
-0.230
-0.640
-1.280
-1.920
-2.560
-3.110
-3.460
-3.360
-2.730
-2.095
-1.615
-1.270
-1.030
-0.815
-0.680
-0.555
-0.460
-0.415
-0.305
-0.200
-0.135
-0.080
-0.005
0.015
0.040
0.065
0.095
0.115
0.130
0.125
0.155
0.155
0.175
0.200
0.195
0.205
0.235
0.250
0.250
0.270
0.290
0.295
0.335
0.360
0.375
0.410
0.440
0.470
0.495
0.550
0.595
0.635
0.665
0.690
0.720
0.755
0.765
0.780
0.820
0.805
0.800
0.760
0.740
0.660
0.610
0.540
0.450
0.370
0.310
0.245
0.185
0.135
0.100
0.075
0.030
-0.005
-0.030
-0.035
-0.055
-0.060
-0.070
-0.095
-0.100
-0.105
-0.085
-0.100
-0.085
-0.080
-0.080
-0.075
-0.055
-0.075
-0.080
-0.085
-0.075
-0.090
-0.100
-0.080
-0.095
-0.125
-0.110
-0.100
-0.090
-0.105
-0.105
-0.115
-0.125
-0.120
-0.125
-0.130
-0.130
-0.135
-0.120
-0.125
-0.130
-0.140
-0.145
-0.135
-0.120
-0.115
-0.100
-0.060
-0.025
-0.025
-0.020
-0.005
-0.020
-0.095
-0.105
-0.140
-0.115
-0.160
-0.170
-0.165
-0.190
-0.195
-0.150
-0.155
-0.145
-0.140
-0.115
-0.110
-0.120
-0.125
-0.150
-0.150
-0.155
-0.140
-0.120
-0.135
-0.110
-0.135
-0.155
-0.175
-0.150
-0.065
-0.045
-0.290
-0.835
-1.475
-2.115
-2.755
-3.340
-3.500
-3.095
-2.460
-1.825
-1.380
-1.090
-0.840
-0.670
-0.530
-0.420
-0.335
-0.255
-0.175
-0.080
0.015
0.065
0.115
0.150
0.145
0.175
0.195
0.200
0.210
0.255
0.260
0.270
0.300
0.305
0.320
0.315
0.350
0.365
0.375
0.380
0.410
0.430
0.470
0.510
0.530
0.565
0.585
0.625
0.650
0.695
0.735
0.765
0.810
0.845
0.880
0.910
0.940
0.955
0.980
0.965
0.950
0.890
0.870
0.790
0.715
0.635
0.560
0.480
0.445
0.355
0.275
0.210
0.195
0.145
0.100
0.100
0.095
0.060
0.055
0.045
0.040
0.030
0.045
0.050
0.050
0.010
0.035
0.035
0.010
0.010
0.045
0.020
0.015
-0.020
-0.005
0.010
0.000
0.000
0.005
0.000
0.010
-0.005
-0.010
-0.020
-0.005
0.000
-0.025
0.000
-0.015
-0.020
-0.035
-0.025
-0.030
-0.050
-0.045
-0.040
-0.025
-0.030
-0.065
-0.035
-0.035
0.010
0.025
0.050
0.075
0.055
0.030
0.005
-0.005
-0.005
-0.010
-0.025
-0.040
-0.075
-0.085
-0.080
-0.105
-0.075
-0.065
-0.065
-0.075
-0.055
-0.050
-0.040
-0.030
-0.065
-0.065
-0.050
-0.085
-0.075
-0.060
-0.060
-0.070
-0.095
-0.115
-0.095
-0.015
0.035
-0.210
-0.775
-1.415
-2.055
-2.695
-3.335
-3.455
-2.985
-2.350
-1.715
-1.280
-0.990
-0.725
-0.570
-0.440
-0.350
-0.250
-0.170
-0.070
0.015
0.085
0.125
0.170
0.215
0.225
0.255
0.270
0.295
0.305
0.315
0.315
0.315
0.340
0.370
0.370
0.400
0.390
0.395
0.435
0.455
0.475
0.505
0.545
0.555
0.580
0.595
0.645
0.690
0.705
0.735
0.815
0.820
0.860
0.905
0.940
0.945
0.970
0.985
0.990
1.000
0.955
0.925
0.865
0.825
0.730
0.655
0.580
0.490
0.455
0.395
0.340
0.280
0.230
0.195
0.185
0.165
0.150
0.130
0.125
0.115
0.100
0.080
0.085
0.080
0.075
0.080
0.095
0.085
0.085
0.085
0.080
0.065
0.060
0.075
0.050
0.060
0.045
0.045
0.040
0.040
0.035
0.015
0.020
0.020
0.010
0.005
0.015
-0.005
-0.005
-0.010
-0.005
-0.010
-0.005
0.000
-0.030
-0.020
-0.005
-0.010
-0.010
0.010
0.000
0.035
0.040
0.060
0.080
0.060
0.045
-0.005
-0.025
-0.035
-0.025
-0.060
-0.060
-0.085
-0.095
-0.095
-0.065
-0.075
-0.070
-0.070
-0.050
-0.050
-0.020
-0.060
-0.065
-0.065
-0.065
-0.100
-0.075
-0.080
-0.060
-0.095
-0.125
-0.120
-0.085
-0.015
0.025
-0.145
-0.615
-1.255
-1.895
-2.535
-3.150
-3.425
-3.170
-2.535
-1.910
-1.470
-1.130
-0.875
-0.680
-0.555
-0.455
-0.350
-0.280
-0.200
-0.110
-0.020
0.055
0.110
0.140
0.170
0.205
0.210
0.215
0.220
0.235
0.250
0.265
0.290
0.310
0.305
0.320
0.335
0.345
0.375
0.360
0.385
0.410
0.425
0.450
0.475
0.515
0.530
0.555
0.615
0.645
0.670
0.695
0.725
0.780
0.800
0.810
0.825
0.865
0.860
0.865
0.870
0.840
0.800
0.735
0.685
0.605
0.550
0.475
0.415
0.350
0.295
0.240
0.170
0.140
0.105
0.095
0.085
0.075
0.025
0.015
0.020
0.025
0.015
0.000
0.005
0.035
0.015
0.005
0.020
0.035
0.025
0.025
0.000
0.000
0.005
0.025
0.025
0.015
0.015
0.000
0.000
0.010
0.010
0.000
0.000
0.000
0.000
0.000
-0.020
-0.030
-0.025
-0.010
-0.005
-0.020
-0.020
-0.015
-0.020
-0.045
-0.040
-0.035
-0.005
0.020
0.030
0.050
0.060
0.085
0.070
0.060
0.025
-0.005
-0.010
-0.025
-0.065
-0.080
-0.080
-0.095
-0.095
-0.085
-0.045
-0.055
-0.065
-0.055
-0.040
-0.040
-0.045
-0.055
-0.080
-0.080
-0.055
-0.055
-0.070
-0.055
-0.090
-0.110
-0.120
-0.110
-0.030
0.010
-0.130
-0.600
-1.240
-1.880
-2.520
-3.160
-3.515
-3.215
-2.580
-1.945
-1.400
-1.085
-0.850
-0.640
-0.490
-0.390
-0.310
-0.255
-0.145
-0.070
0.040
0.075
0.135
0.185
0.220
0.220
0.255
0.265
0.265
0.280
0.285
0.305
0.325
0.315
0.330
0.345
0.350
0.345
0.390
0.405
0.425
0.455
0.450
0.495
0.530
0.545
0.570
0.610
0.650
0.675
0.700
0.750
0.800
0.845
0.885
0.890
0.910
0.930
0.935
0.945
0.950
0.935
0.875
0.830
0.785
0.690
0.615
0.540
0.450
0.400
0.335
0.275
0.210
0.160
0.135
0.080
0.070
0.055
0.030
0.030
0.010
-0.015
-0.015
0.010
0.005
-0.010
0.000
0.010
-0.025
-0.025
-0.025
-0.020
-0.025
-0.025
-0.020
0.015
-0.010
-0.010
-0.015
-0.020
-0.025
-0.015
-0.035
-0.025
-0.040
-0.030
-0.050
-0.040
-0.050
-0.070
-0.040
-0.065
-0.060
-0.075
-0.080
-0.075
-0.080
-0.080
-0.075
-0.060
-0.040
-0.035
-0.010
0.000
0.000
0.040
0.010
0.035
-0.005
-0.050
-0.065
-0.065
-0.110
-0.125
-0.120
-0.145
-0.140
-0.120
-0.120
-0.115
-0.095
-0.105
-0.070
-0.060
-0.090
-0.100
-0.110
-0.110
-0.100
-0.120
-0.100
-0.100
-0.125
-0.135
-0.155
-0.150
-0.120
-0.050
-0.105
-0.495
-1.135
-1.775
-2.415
-3.055
-3.540
-3.430
-2.800
-2.165
-1.540
-1.195
-0.915
-0.730
-0.600
-0.500
-0.390
-0.315
-0.225
-0.120
-0.030
0.040
0.105
0.135
0.160
0.180
0.175
0.210
0.225
0.230
0.270
0.275
0.280
0.295
0.300
0.340
0.355
0.400
0.390
0.400
0.420
0.460
0.485
0.495
0.515
0.540
0.580
0.625
0.680
0.690
0.745
0.780
0.835
0.865
0.880
0.925
0.935
0.960
1.000
0.995
0.985
0.965
0.940
0.875
0.830
0.710
0.650
0.570
0.500
0.430
0.355
0.280
0.210
0.195
0.140
0.110
0.095
0.050
0.045
0.040
0.015
0.015
0.025
0.020
0.005
0.010
0.035
0.015
0.020
0.020
0.015
0.030
0.045
0.025
0.020
0.010
0.025
0.020
0.025
0.005
0.030
0.020
-0.005
0.000
0.010
0.005
0.020
0.000
0.005
-0.015
0.000
-0.015
-0.025
-0.015
-0.020
-0.030
-0.015
-0.020
-0.010
-0.020
0.005
0.025
0.055
0.085
0.070
0.065
0.050
0.035
0.005
-0.005
-0.005
-0.035
-0.055
-0.080
-0.090
-0.105
-0.090
-0.060
-0.050
-0.060
-0.070
-0.070
-0.065
-0.075
-0.070
-0.080
-0.105
-0.085
-0.085
-0.090
-0.075
-0.100
-0.100
-0.135
-0.140
-0.100
-0.025
-0.035
-0.345
-0.965
-1.605
-2.245
-2.885
-3.495
-3.495
-2.965
-2.330
-1.705
-1.290
-0.990
-0.780
-0.610
-0.500
-0.410
-0.300
-0.225
-0.135
-0.045
0.050
0.110
0.135
0.155
0.170
0.185
0.190
0.225
0.235
0.250
0.265
0.275
0.300
0.310
0.320
0.325
0.345
0.360
0.370
0.395
0.410
0.435
0.475
0.495
0.530
0.545
0.605
0.625
0.630
0.655
0.725
0.765
0.775
0.810
0.835
0.860
0.890
0.895
0.880
0.890
0.870
0.825
0.780
0.730
0.625
0.560
0.500
0.440
0.385
0.290
0.245
0.175
0.140
0.120
0.080
0.030
0.010
0.000
-0.015
-0.020
-0.030
-0.030
-0.010
-0.045
-0.040
-0.030
-0.040
-0.020
-0.040
-0.035
-0.060
-0.035
-0.040
-0.045
-0.045
-0.050
-0.020
-0.025
-0.025
-0.035
-0.045
-0.030
-0.025
-0.055
-0.045
-0.050
-0.035
-0.055
-0.065
-0.050
-0.065
-0.065
-0.065
-0.070
-0.070
-0.080
-0.095
-0.080
-0.060
-0.045
-0.020
0.005
0.000
0.015
0.020
0.005
0.005
-0.015
-0.050
-0.060
-0.070
-0.080
-0.110
-0.130
-0.135
-0.120
-0.130
-0.115
-0.125
-0.120
-0.085
-0.080
-0.090
-0.110
-0.120
-0.115
-0.100
-0.125
-0.110
-0.115
-0.135
-0.150
-0.160
-0.200
-0.150
-0.065
-0.035
-0.210
-0.720
-1.360
-2.000
-2.640
-3.255
-3.430
-3.115
-2.480
-1.845
-1.395
-1.110
-0.865
-0.665
-0.545
-0.425
-0.340
-0.270
-0.170
-0.090
0.000
0.075
0.120
0.130
0.170
0.190
0.180
0.215
0.230
0.230
0.275
0.290
0.295
0.285
0.310
0.335
0.345
0.345
0.370
0.400
0.405
0.425
0.440
0.465
0.490
0.510
0.555
0.590
0.620
0.675
0.690
0.710
0.770
0.790
0.810
0.830
0.845
0.845
0.865
0.880
0.855
0.820
0.785
0.740
0.670
0.585
0.540
0.470
0.375
0.325
0.260
0.205
0.175
0.120
0.085
0.085
0.060
0.030
0.045
0.045
0.030
0.025
0.010
0.015
0.015
0.025
0.000
0.015
0.015
0.020
0.010
0.010
0.000
0.005
0.010
-0.005
0.000
-0.010
0.000
-0.010
-0.005
0.000
-0.015
-0.025
-0.015
0.000
-0.035
-0.020
-0.050
-0.040
-0.040
-0.030
-0.050
-0.050
-0.070
-0.055
-0.055
-0.035
-0.045
-0.040
-0.035
-0.005
0.025
0.030
0.050
0.025
0.020
0.020
-0.010
-0.015
-0.050
-0.075
-0.100
-0.140
-0.120
-0.120
-0.120
-0.090
-0.075
-0.110
-0.105
-0.080
-0.095
-0.080
-0.105
-0.100
-0.100
-0.100
-0.110
-0.120
-0.120
-0.100
-0.110
-0.135
-0.145
-0.125
-0.065
-0.075
-0.325
-0.915
-1.555
-2.195
-2.835
-3.445
-3.560
-3.095
-2.460
-1.825
-1.395
-1.080
-0.845
-0.675
-0.535
-0.440
-0.365
-0.270
-0.180
-0.085
-0.005
0.065
0.095
0.120
0.175
0.150
0.195
0.215
0.225
0.245
0.265
0.255
0.290
0.310
0.310
0.340
0.355
0.360
0.350
0.380
0.420
0.425
0.460
0.500
0.510
0.535
0.560
0.610
0.645
0.680
0.725
0.715
0.755
0.780
0.840
0.845
0.885
0.905
0.920
0.910
0.890
0.850
0.830
0.790
0.700
0.635
0.570
0.470
0.385
0.335
0.295
0.225
0.170
0.140
0.110
0.075
0.065
0.045
0.025
0.020
-0.005
0.005
0.015
0.005
0.000
0.005
0.005
0.000
0.010
0.000
-0.005
-0.015
0.000
0.010
0.010
0.000
-0.015
0.000
-0.010
0.000
0.000
0.015
0.000
0.000
-0.010
-0.010
-0.030
-0.040
-0.020
-0.030
-0.035
-0.025
-0.035
-0.030
-0.015
-0.025
-0.020
-0.040
-0.035
-0.010
0.025
0.050
0.025
0.050
0.080
0.050
0.030
-0.015
-0.025
-0.030
-0.060
-0.080
-0.105
-0.090
-0.100
-0.120
-0.085
-0.080
-0.090
-0.060
-0.060
-0.050
-0.035
-0.050
-0.045
-0.060
-0.090
-0.100
-0.070
-0.080
-0.080
-0.120
-0.140
-0.155
-0.125
-0.045
-0.065
-0.325
-0.900
-1.540
-2.180
-2.820
-3.460
-3.535
-3.015
-2.380
-1.745
-1.305
-1.030
-0.805
-0.645
-0.515
-0.400
-0.335
-0.235
-0.165
-0.065
0.000
0.050
0.100
0.140
0.180
0.175
0.205
0.240
0.260
0.270
0.270
0.275
0.310
0.330
0.335
0.330
0.350
0.390
0.390
0.430
0.450
0.450
0.470
0.490
0.535
0.550
0.595
0.630
0.660
0.705
0.725
0.765
0.810
0.840
0.865
0.885
0.920
0.930
0.955
0.945
0.945
0.900
0.825
0.750
0.700
0.625
0.530
0.450
0.395
0.320
0.240
0.180
0.150
0.105
0.035
0.010
-0.005
-0.025
-0.005
-0.015
-0.045
-0.030
-0.055
-0.045
-0.060
-0.080
-0.065
-0.080
-0.070
-0.070
-0.070
-0.080
-0.055
-0.060
-0.090
-0.075
-0.100
-0.085
-0.080
-0.095
-0.105
-0.105
-0.130
-0.125
-0.110
-0.130
-0.130
-0.125
-0.130
-0.125
-0.150
-0.150
-0.160
-0.170
-0.160
-0.160
-0.155
-0.160
-0.140
-0.130
-0.105
-0.065
-0.055
-0.070
-0.075
-0.100
-0.115
-0.140
-0.190
-0.180
-0.190
-0.205
-0.245
-0.260
-0.260
-0.225
-0.240
-0.230
-0.230
-0.225
-0.230
-0.225
-0.205
-0.230
-0.230
-0.245
-0.265
-0.265
-0.285
-0.260
-0.270
-0.290
-0.310
-0.315
-0.265
-0.165
-0.235
-0.630
-1.270
-1.910
-2.550
-3.190
-3.690
-3.590
-2.990
-2.355
-1.820
-1.435
-1.145
-0.965
-0.780
-0.650
-0.580
-0.490
-0.410
-0.310
-0.215
-0.145
-0.070
-0.035
-0.030
0.000
0.025
0.040
0.040
0.030
0.060
0.065
0.090
0.095
0.120
0.140
0.130
0.155
0.160
0.180
0.195
0.230
0.265
0.280
0.295
0.325
0.350
0.375
0.435
0.465
0.510
0.550
0.570
0.590
0.625
0.670
0.675
0.705
0.710
0.705
0.700
0.640
0.605
0.580
0.505
0.445
0.360
0.285
0.200
0.115
0.070
0.020
0.000
-0.075
-0.090
-0.135
-0.140
-0.160
-0.175
-0.170
-0.185
-0.200
-0.200
-0.195
-0.200
-0.210
-0.215
-0.215
-0.230
-0.225
-0.220
-0.230
-0.240
-0.220
-0.235
-0.230
-0.240
-0.225
-0.205
-0.225
-0.245
-0.225
-0.245
-0.245
-0.250
-0.245
-0.235
-0.250
-0.270
-0.285
-0.295
-0.285
-0.270
-0.280
-0.300
-0.290
-0.300
-0.310
-0.300
-0.290
-0.270
-0.265
-0.240
-0.235
-0.205
-0.200
-0.215
-0.205
-0.260
-0.270
-0.280
-0.310
-0.330
-0.340
-0.360
-0.365
-0.385
-0.360
-0.350
-0.350
-0.350
-0.320
-0.330
-0.340
-0.350
-0.355
-0.380
-0.365
-0.365
-0.400
-0.365
-0.365
-0.395
-0.415
-0.445
-0.415
-0.330
-0.260
-0.400
-0.875
-1.515
-2.155
-2.795
-3.435
-3.720
-3.470
-2.835
-2.200
-1.730
-1.390
-1.155
-0.970
-0.825
-0.700
-0.635
-0.550
-0.460
-0.390
-0.300
-0.240
-0.190
-0.135
-0.110
-0.090
-0.085
-0.075
-0.060
-0.050
-0.020
-0.025
-0.040
-0.010
0.010
0.035
0.040
0.055
0.050
0.070
0.100
0.125
0.130
0.155
0.190
0.195
0.230
0.275
0.295
0.325
0.360
0.400
0.445
0.460
0.490
0.535
0.565
0.565
0.575
0.590
0.585
0.570
0.530
0.475
0.415
0.355
0.275
0.220
0.125
0.075
0.000
-0.050
-0.115
-0.160
-0.195
-0.230
-0.240
-0.250
-0.270
-0.250
-0.275
-0.290
-0.285
-0.290
-0.285
-0.285
-0.270
-0.275
-0.270
-0.270
-0.270
-0.295
-0.290
-0.280
-0.285
-0.275
-0.280
-0.280
-0.275
-0.275
-0.265
-0.275
-0.285
-0.300
-0.285
-0.300
-0.310
-0.310
-0.300
-0.310
-0.290
-0.315
-0.320
-0.315
-0.340
-0.315
-0.305
-0.310
-0.295
-0.295
-0.265
-0.255
-0.235
-0.195
-0.185
-0.180
-0.210
-0.265
-0.295
-0.290
-0.295
-0.320
-0.320
-0.360
-0.385
-0.365
-0.355
-0.320
-0.320
-0.330
-0.320
-0.310
-0.320
-0.315
-0.320
-0.330
-0.340
-0.335
-0.325
-0.345
-0.315
-0.335
-0.365
-0.390
-0.395
-0.340
-0.255
-0.255
-0.530
-1.100
-1.740
-2.380
-3.020
-3.605
-3.655
-3.195
-2.560
-1.925
-1.505
-1.200
-0.975
-0.795
-0.690
-0.600
-0.515
-0.420
-0.305
-0.230
-0.140
-0.105
-0.080
-0.040
-0.010
0.000
0.025
0.045
0.050
0.055
0.085
0.090
0.090
0.130
0.125
0.145
0.160
0.175
0.205
0.220
0.215
0.255
0.280
0.300
0.295
0.350
0.395
0.410
0.465
0.520
0.550
0.580
0.600
0.670
0.685
0.700
0.730
0.745
0.740
0.745
0.715
0.675
0.635
0.600
0.500
0.445
0.370
0.295
0.215
0.150
0.100
0.030
-0.015
-0.060
-0.085
-0.110
-0.135
-0.140
-0.150
-0.180
-0.160
-0.160
-0.160
-0.180
-0.160
-0.175
-0.190
-0.175
-0.160
-0.170
-0.175
-0.170
-0.150
-0.155
-0.160
-0.185
-0.155
-0.135
-0.155
-0.140
-0.145
-0.160
-0.155
-0.155
-0.170
-0.170
-0.175
-0.190
-0.195
-0.165
-0.180
-0.205
-0.205
-0.200
-0.190
-0.195
-0.190
-0.190
-0.190
-0.170
-0.150
-0.125
-0.130
-0.130
-0.080
-0.100
-0.115
-0.130
-0.155
-0.180
-0.205
-0.225
-0.250
-0.270
-0.285
-0.270
-0.260
-0.255
-0.235
-0.235
-0.230
-0.215
-0.205
-0.210
-0.225
-0.230
-0.245
-0.260
-0.255
-0.235
-0.225
-0.230
-0.260
-0.280
-0.305
-0.265
-0.160
-0.190
-0.470
-1.080
-1.720
-2.360
-3.000
-3.580
-3.685
-3.245
-2.610
-1.975
-1.510
-1.195
-0.950
-0.760
-0.625
-0.535
-0.420
-0.330
-0.240
-0.160
-0.080
-0.035
0.040
0.065
0.100
0.135
0.140
0.140
0.150
0.190
0.175
0.225
0.235
0.245
0.265
0.270
0.295
0.325
0.310
0.360
0.370
0.360
0.410
0.435
0.470
0.505
0.565
0.580
0.605
0.655
0.700
0.740
0.760
0.805
0.860
0.860
0.895
0.925
0.895
0.900
0.885
0.860
0.820
0.740
0.670
0.585
0.495
0.420
0.345
0.285
0.230
0.160
0.140
0.085
0.055
0.025
0.015
0.005
-0.020
-0.025
-0.025
-0.040
-0.040
-0.040
-0.030
-0.035
-0.035
-0.040
-0.020
-0.045
-0.030
-0.015
-0.020
-0.045
-0.030
-0.010
-0.025
-0.010
-0.020
-0.030
-0.010
-0.025
-0.050
-0.010
-0.020
-0.040
-0.035
-0.035
-0.025
-0.030
-0.060
-0.045
-0.060
-0.045
-0.065
-0.055
-0.035
-0.050
-0.030
-0.015
-0.005
0.020
0.045
0.045
0.040
0.020
0.005
-0.015
-0.035
-0.025
-0.050
-0.080
-0.130
-0.110
-0.120
-0.095
-0.070
-0.085
-0.115
-0.075
-0.070
-0.075
-0.085
-0.095
-0.095
-0.090
-0.085
-0.080
-0.095
-0.100
-0.095
-0.135
-0.145
-0.140
-0.065
-0.005
-0.160
-0.650
-1.290
-1.930
-2.570
-3.210
-3.480
-3.185
-2.550
-1.915
-1.470
-1.125
-0.865
-0.675
-0.510
-0.420
-0.340
-0.260
-0.165
-0.080
0.000
0.055
0.105
0.160
0.170
0.165
0.205
0.220
0.215
0.230
0.250
0.245
0.250
0.270
0.305
0.300
0.310
0.340
0.340
0.370
0.395
0.395
0.410
0.445
0.475
0.515
0.545
0.570
0.610
0.630
0.660
0.680
0.720
0.775
0.795
0.830
0.835
0.850
0.875
0.875
0.860
0.825
0.775
0.700
0.630
0.580
0.510
0.415
0.345
0.305
0.245
0.175
0.140
0.095
0.095
0.050
0.020
-0.005
0.000
-0.030
-0.030
-0.030
-0.015
-0.020
-0.015
-0.025
-0.020
-0.045
-0.045
-0.035
-0.045
-0.045
-0.050
-0.045
-0.045
-0.030
-0.025
-0.020
-0.025
-0.035
-0.050
-0.040
-0.040
-0.030
-0.055
-0.065
-0.045
-0.040
-0.070
-0.055
-0.065
-0.050
-0.040
-0.045
-0.055
-0.075
-0.090
-0.080
-0.065
-0.030
-0.030
-0.015
0.005
0.030
0.020
0.030
0.000
-0.045
-0.050
-0.065
-0.070
-0.115
-0.125
-0.140
-0.150
-0.135
-0.115
-0.105
-0.100
-0.120
-0.100
-0.090
-0.070
-0.100
-0.120
-0.110
-0.155
-0.140
-0.120
-0.135
-0.135
-0.135
-0.175
-0.175
-0.160
-0.070
-0.050
-0.280
-0.770
-1.410
-2.050
-2.690
-3.265
-3.455
-3.085
-2.450
-1.830
-1.405
-1.100
-0.860
-0.675
-0.545
-0.455
-0.360
-0.290
-0.205
-0.115
-0.025
0.025
0.065
0.100
0.130
0.135
0.170
0.185
0.185
0.185
0.210
0.240
0.240
0.255
0.260
0.265
0.290
0.310
0.315
0.340
0.340
0.355
0.385
0.415
0.435
0.455
0.480
0.530
0.580
0.605
0.625
0.660
0.695
0.700
0.755
0.775
0.790
0.775
0.790
0.780
0.760
0.715
0.675
0.625
0.585
0.535
0.450
0.380
0.330
0.240
0.185
0.130
0.095
0.050
0.005
-0.030
-0.030
-0.040
-0.045
-0.070
-0.070
-0.050
-0.070
-0.100
-0.130
-0.105
-0.090
-0.095
-0.100
-0.095
-0.095
-0.095
-0.100
-0.100
-0.095
-0.075
-0.105
-0.120
-0.110
-0.105
-0.105
-0.115
-0.125
-0.110
-0.120
-0.145
-0.145
-0.150
-0.160
-0.160
-0.165
-0.175
-0.190
-0.175
-0.180
-0.170
-0.170
-0.170
-0.150
-0.125
-0.130
-0.120
-0.085
-0.070
-0.095
-0.095
-0.125
-0.155
-0.195
-0.210
-0.210
-0.255
-0.275
-0.270
-0.245
-0.235
-0.225
-0.240
-0.240
-0.230
-0.210
-0.210
-0.220
-0.230
-0.240
-0.250
-0.235
-0.245
-0.255
-0.275
-0.285
-0.290
-0.305
-0.335
-0.235
-0.180
-0.310
-0.745
-1.385
-2.025
-2.665
-3.295
-3.560
-3.355
-2.720
-2.085
-1.590
-1.280
-1.040
-0.860
-0.725
-0.635
-0.560
-0.495
-0.420
-0.335
-0.240
-0.205
-0.155
-0.125
-0.075
-0.055
-0.070
-0.045
-0.035
-0.040
-0.010
-0.015
-0.010
0.000
0.015
0.010
0.050
0.080
0.105
0.100
0.080
0.110
0.125
0.180
0.195
0.240
0.255
0.275
0.330
0.335
0.395
0.420
0.445
0.485
0.495
0.535
0.580
0.575
0.570
0.600
0.555
0.570
0.500
0.430
0.380
0.295
0.195
0.150
0.060
0.000
-0.055
-0.120
-0.180
-0.210
-0.230
-0.255
-0.275
-0.290
-0.290
-0.315
-0.320
-0.320
-0.320
-0.345
-0.320
-0.330
-0.330
-0.350
-0.335
-0.330
-0.355
-0.365
-0.345
-0.355
-0.340
-0.360
-0.345
-0.345
-0.360
-0.355
-0.370
-0.370
-0.385
-0.370
-0.400
-0.400
-0.385
-0.395
-0.400
-0.415
-0.410
-0.410
-0.415
-0.410
-0.400
-0.400
-0.425
-0.430
-0.430
-0.405
-0.385
-0.370
-0.320
-0.300
-0.295
-0.305
-0.320
-0.380
-0.380
-0.395
-0.420
-0.415
-0.470
-0.450
-0.495
-0.465
-0.440
-0.420
-0.425
-0.430
-0.440
-0.425
-0.425
-0.445
-0.445
-0.460
-0.465
-0.445
-0.460
-0.485
-0.480
-0.485
-0.515
-0.525
-0.495
-0.405
-0.375
-0.585
-1.075
-1.715
-2.355
-2.995
-3.555
-3.760
-3.420
-2.785
-2.150
-1.735
-1.455
-1.295
-1.100
-0.940
-0.865
-0.740
-0.630
-0.570
-0.470
-0.375
-0.305
-0.295
-0.260
-0.245
-0.215
-0.205
-0.175
-0.150
-0.165
-0.150
-0.135
-0.115
-0.125
-0.105
-0.085
-0.075
-0.055
-0.070
-0.055
-0.040
0.005
0.030
0.045
0.080
0.100
0.135
0.175
0.200
0.215
0.245
0.305
0.350
0.370
0.400
0.430
0.450
0.460
0.480
0.455
0.450
0.420
0.365
0.305
0.270
0.190
0.120
0.010
0.000
-0.080
-0.165
-0.215
-0.275
-0.280
-0.300
-0.355
-0.375
-0.385
-0.420
-0.420
-0.395
-0.410
-0.390
-0.395
-0.435
-0.425
-0.425
-0.430
-0.420
-0.425
-0.400
-0.415
-0.445
-0.420
-0.430
-0.430
-0.410
-0.410
-0.425
-0.445
-0.445
-0.450
-0.430
-0.435
-0.445
-0.445
-0.445
-0.475
-0.455
-0.455
-0.445
-0.470
-0.465
-0.490
-0.495
-0.480
-0.495
-0.500
-0.485
-0.450
-0.435
-0.415
-0.400
-0.420
-0.380
-0.420
-0.400
-0.460
-0.475
-0.490
-0.510
-0.530
-0.545
-0.560
-0.570
-0.540
-0.525
-0.525
-0.535
-0.525
-0.525
-0.510
-0.515
-0.530
-0.530
-0.525
-0.535
-0.535
-0.525
-0.540
-0.540
-0.530
-0.575
-0.590
-0.540
-0.450
-0.430
-0.675
-1.280
-1.920
-2.560
-3.200
-3.700
-3.815
-3.420
-2.785
-2.150
-1.735
-1.505
-1.295
-1.090
-0.950
-0.850
-0.760
-0.665
-0.545
-0.475
-0.385
-0.330
-0.295
-0.270
-0.260
-0.215
-0.205
-0.185
-0.180
-0.170
-0.135
-0.125
-0.140
-0.100
-0.110
-0.090
-0.050
-0.025
-0.015
0.000
0.030
0.040
0.075
0.090
0.125
0.180
0.200
0.245
0.270
0.310
0.330
0.385
0.425
0.445
0.475
0.500
0.515
0.525
0.525
0.495
0.490
0.435
0.375
0.310
0.220
0.155
0.105
0.020
-0.055
-0.080
-0.140
-0.185
-0.230
-0.250
-0.270
-0.265
-0.295
-0.300
-0.305
-0.325
-0.350
-0.325
-0.340
-0.340
-0.325
-0.330
-0.335
-0.330
-0.345
-0.325
-0.340
-0.325
-0.335
-0.315
-0.330
-0.350
-0.320
-0.320
-0.320
-0.340
-0.320
-0.340
-0.340
-0.330
-0.350
-0.350
-0.345
-0.330
-0.365
-0.330
-0.355
-0.360
-0.380
-0.385
-0.345
-0.365
-0.355
-0.315
-0.285
-0.285
-0.265
-0.260
-0.255
-0.260
-0.255
-0.275
-0.320
-0.330
-0.330
-0.350
-0.370
-0.390
-0.390
-0.375
-0.355
-0.355
-0.355
-0.355
-0.350
-0.340
-0.330
-0.340
-0.350
-0.370
-0.365
-0.365
-0.355
-0.355
-0.365
-0.360
-0.400
-0.430
-0.395
-0.365
-0.285
-0.365
-0.750
-1.390
-2.030
-2.670
-3.235
-3.565
-3.415
-2.810
-2.195
-1.730
-1.395
-1.135
-0.955
-0.780
-0.650
-0.585
-0.530
-0.460
-0.355
-0.290
-0.215
-0.155
-0.120
-0.105
-0.100
-0.055
-0.050
-0.035
-0.035
-0.020
-0.010
0.015
0.005
0.030
0.040
0.045
0.070
0.100
0.115
0.125
0.130
0.160
0.170
0.200
0.225
0.245
0.295
0.310
0.355
0.375
0.425
0.435
0.455
0.505
0.555
0.555
0.565
0.575
0.585
0.570
0.550
0.520
0.490
0.410
0.345
0.275
0.185
0.145
0.105
0.020
-0.030
-0.075
-0.125
-0.135
-0.175
-0.165
-0.175
-0.205
-0.210
-0.240
-0.235
-0.255
-0.255
-0.235
-0.245
-0.235
-0.240
-0.245
-0.235
-0.220
-0.230
-0.215
-0.235
-0.245
-0.245
-0.260
-0.250
-0.235
-0.270
-0.235
-0.240
-0.245
-0.235
-0.235
-0.225
-0.245
-0.255
-0.250
-0.265
-0.260
-0.245
-0.260
-0.260
-0.245
-0.250
-0.250
-0.260
-0.255
-0.220
-0.220
-0.185
-0.170
-0.165
-0.195
-0.175
-0.205
-0.210
-0.220
-0.240
-0.240
-0.275
-0.305
-0.310
-0.310
-0.280
-0.280
-0.275
-0.265
-0.265
-0.250
-0.250
-0.275
-0.275
-0.265
-0.285
-0.285
-0.310
-0.285
-0.280
-0.290
-0.280
-0.310
-0.315
-0.245
-0.160
-0.270
-0.650
-1.255
-1.895
-2.535
-3.100
-3.395
-3.230
-2.635
-2.010
-1.515
-1.190
-0.925
-0.760
-0.640
-0.545
-0.485
-0.400
-0.335
-0.245
-0.165
-0.095
-0.050
-0.025
-0.020
0.000
0.000
0.055
0.065
0.080
0.080
0.105
0.105
0.125
0.120
0.165
0.165
0.175
0.190
0.205
0.220
0.240
0.260
0.300
0.335
0.350
0.350
0.410
0.425
0.445
0.495
0.545
0.550
0.575
0.615
0.630
0.655
0.690
0.685
0.685
0.680
0.665
0.630
0.570
0.505
0.450
0.420
0.325
0.270
0.195
0.145
0.090
0.045
0.025
-0.030
-0.045
-0.070
-0.105
-0.090
-0.125
-0.120
-0.140
-0.150
-0.120
-0.120
-0.125
-0.135
-0.120
-0.130
-0.125
-0.135
-0.140
-0.110
-0.120
-0.155
-0.130
-0.145
-0.135
-0.125
-0.120
-0.155
-0.135
-0.150
-0.155
-0.150
-0.130
-0.140
-0.160
-0.160
-0.155
-0.145
-0.175
-0.150
-0.165
-0.170
-0.180
-0.190
-0.160
-0.165
-0.135
-0.100
-0.070
-0.060
-0.055
-0.080
-0.095
-0.110
-0.130
-0.155
-0.175
-0.190
-0.210
-0.220
-0.230
-0.230
-0.195
-0.195
-0.210
-0.195
-0.215
-0.185
-0.195
-0.210
-0.190
-0.220
-0.190
-0.230
-0.215
-0.195
-0.210
-0.215
-0.235
-0.260
-0.255
-0.175
-0.120
-0.290
-0.720
-1.360
-2.000
-2.640
-3.140
-3.410
-3.140
-2.505
-1.890
-1.435
-1.140
-0.895
-0.745
-0.615
-0.510
-0.440
-0.355
-0.265
-0.190
-0.100
-0.060
-0.030
0.005
0.035
0.045
0.055
0.065
0.110
0.125
0.155
0.130
0.155
0.145
0.170
0.190
0.180
0.215
0.205
0.245
0.265
0.285
0.335
0.320
0.355
0.365
0.435
0.455
0.495
0.535
0.560
0.600
0.635
0.655
0.700
0.730
0.750
0.755
0.780
0.755
0.760
0.725
0.695
0.640
0.560
0.485
0.430
0.390
0.285
0.230
0.165
0.130
0.105
0.055
0.030
-0.010
0.000
-0.020
-0.030
-0.050
-0.045
-0.035
-0.050
-0.040
-0.070
-0.060
-0.050
-0.020
-0.040
-0.045
-0.050
-0.055
-0.040
-0.035
-0.035
-0.030
-0.050
-0.045
-0.020
-0.050
-0.040
-0.045
-0.050
-0.050
-0.040
-0.040
-0.055
-0.035
-0.050
-0.060
-0.050
-0.060
-0.060
-0.060
-0.050
-0.065
-0.060
-0.020
-0.030
-0.010
0.025
0.050
0.050
0.045
0.065
0.025
0.015
0.000
-0.035
-0.050
-0.075
-0.070
-0.100
-0.080
-0.090
-0.075
-0.065
-0.045
-0.060
-0.050
-0.050
-0.035
-0.050
-0.055
-0.065
-0.065
-0.090
-0.105
-0.090
-0.060
-0.080
-0.110
-0.125
-0.110
-0.020
-0.005
-0.235
-0.755
-1.395
-2.035
-2.675
-3.175
-3.345
-2.965
-2.330
-1.730
-1.335
-1.015
-0.770
-0.605
-0.475
-0.390
-0.300
-0.230
-0.150
-0.070
0.015
0.090
0.125
0.150
0.175
0.195
0.205
0.225
0.250
0.245
0.275
0.290
0.310
0.295
0.300
0.355
0.330
0.370
0.390
0.415
0.410
0.415
0.450
0.470
0.495
0.545
0.565
0.605
0.640
0.665
0.705
0.715
0.750
0.800
0.850
0.855
0.905
0.910
0.895
0.895
0.885
0.855
0.845
0.780
0.695
0.645
0.550
0.500
0.425
0.370
0.315
0.260
0.190
0.185
0.135
0.100
0.075
0.080
0.055
0.035
0.035
0.035
0.020
0.025
0.020
0.035
0.025
0.025
0.030
0.040
0.025
0.035
0.035
0.035
0.020
0.045
0.025
0.030
0.030
0.015
0.025
0.015
0.005
0.015
0.005
0.000
0.005
0.015
-0.005
-0.005
0.000
0.010
-0.015
-0.020
-0.005
0.000
-0.005
-0.005
0.015
-0.005
0.035
0.070
0.090
0.080
0.080
0.050
0.010
-0.005
-0.010
-0.020
-0.030
-0.080
-0.095
-0.090
-0.085
-0.055
-0.045
-0.050
-0.060
-0.045
-0.025
-0.025
-0.020
-0.045
-0.045
-0.050
-0.040
-0.060
-0.035
-0.035
-0.065
-0.075
-0.070
-0.045
0.020
0.045
-0.135
-0.630
-1.270
-1.910
-2.550
-3.185
-3.470
-3.190
-2.555
-1.920
-1.345
-1.040
-0.810
-0.595
-0.465
-0.370
-0.295
-0.220
-0.130
-0.040
0.050
0.120
0.190
0.210
0.235
0.260
0.295
0.290
0.310
0.315
0.345
0.335
0.355
0.385
0.395
0.410
0.420
0.455
0.470
0.470
0.490
0.505
0.540
0.550
0.585
0.610
0.645
0.660
0.700
0.750
0.795
0.810
0.855
0.885
0.910
0.945
0.975
1.005
0.990
0.995
0.985
0.985
0.935
0.880
0.805
0.735
0.650
0.590
0.535
0.450
0.380
0.350
0.305
0.265
0.230
0.190
0.165
0.165
0.120
0.120
0.110
0.110
0.120
0.120
0.115
0.120
0.105
0.105
0.115
0.115
0.120
0.135
0.115
0.105
0.105
0.090
0.110
0.105
0.100
0.095
0.090
0.095
0.080
0.070
0.075
0.080
0.070
0.070
0.065
0.055
0.055
0.055
0.055
0.035
0.060
0.050
0.050
0.060
0.060
0.070
0.100
0.125
0.150
0.175
0.155
0.155
0.145
0.110
0.070
0.055
0.030
0.010
0.000
-0.010
-0.040
-0.020
0.015
0.025
0.020
0.025
0.020
0.025
0.015
0.000
0.015
0.015
0.005
0.020
0.020
0.020
0.005
-0.020
-0.035
-0.040
-0.040
0.040
0.055
-0.145
-0.685
-1.325
-1.965
-2.605
-3.245
-3.480
-3.085
-2.450
-1.815
-1.300
-0.995
-0.765
-0.565
-0.435
-0.345
-0.245
-0.175
-0.080
0.010
0.075
0.150
0.195
0.235
0.275
0.285
0.310
0.330
0.330
0.350
0.345
0.365
0.375
0.405
0.390
0.400
0.415
0.425
0.440
0.480
0.500
0.525
0.550
0.565
0.610
0.625
0.650
0.695
0.710
0.760
0.805
0.855
0.880
0.900
0.945
0.960
0.995
1.035
1.045
1.050
1.030
1.005
0.980
0.905
0.840
0.770
0.670
0.590
0.520
0.445
0.415
0.365
0.285
0.235
0.210
0.195
0.160
0.155
0.125
0.130
0.130
0.110
0.130
0.095
0.130
0.110
0.100
0.095
0.105
0.105
0.090
0.090
0.080
0.085
0.090
0.085
0.110
0.100
0.095
0.070
0.075
0.085
0.070
0.080
0.100
0.080
0.075
0.060
0.055
0.030
0.050
0.060
0.050
0.055
0.055
0.035
0.040
0.060
0.085
0.095
0.115
0.135
0.145
0.150
0.125
0.105
0.095
0.070
0.040
0.040
0.025
-0.005
-0.010
-0.005
0.010
0.030
0.035
-0.005
0.035
0.040
0.045
0.035
0.010
0.025
0.030
0.020
0.020
0.020
0.025
0.015
-0.005
-0.035
-0.050
0.005
0.110
0.050
-0.270
-0.885
-1.525
-2.165
-2.805
-3.320
-3.315
-2.750
-2.115
-1.515
-1.135
-0.855
-0.625
-0.480
-0.350
-0.250
-0.170
-0.085
0.000
0.080
0.165
0.195
0.245
0.275
0.315
0.305
0.335
0.340
0.335
0.355
0.390
0.380
0.395
0.410
0.410
0.430
0.430
0.450
0.480
0.495
0.500
0.510
0.555
0.590
0.610
0.655
0.645
0.710
0.720
0.780
0.800
0.825
0.865
0.900
0.935
0.950
0.965
0.975
0.995
0.985
0.955
0.920
0.895
0.815
0.755
0.690
0.600
0.525
0.475
0.405
0.350
0.310
0.280
0.230
0.205
0.170
0.150
0.135
0.130
0.120
0.105
0.095
0.090
0.105
0.095
0.095
0.085
0.095
0.090
0.060
0.085
0.100
0.090
0.095
0.075
0.105
0.085
0.090
0.075
0.040
0.060
0.065
0.065
0.070
0.060
0.040
0.065
0.045
0.045
0.070
0.050
0.040
0.040
0.015
0.025
0.015
0.030
0.035
0.085
0.080
0.105
0.105
0.120
0.120
0.095
0.055
0.035
0.000
-0.010
-0.005
-0.040
-0.055
-0.070
-0.050
-0.020
-0.020
-0.025
-0.040
-0.040
0.000
-0.010
-0.030
-0.050
-0.065
-0.050
-0.065
-0.050
-0.040
-0.045
-0.070
-0.075
-0.095
-0.085
-0.015
0.025
-0.135
-0.575
-1.210
-1.850
-2.490
-3.035
-3.330
-3.120
-2.515
-1.890
-1.420
-1.060
-0.795
-0.585
-0.445
-0.355
-0.290
-0.205
-0.125
-0.045
0.045
0.090
0.140
0.155
0.190
0.210
0.225
0.240
0.245
0.250
0.260
0.265
0.295
0.305
0.305
0.330
0.325
0.330
0.345
0.395
0.390
0.395
0.425
0.440
0.485
0.515
0.535
0.550
0.585
0.625
0.645
0.660
0.695
0.740
0.760
0.795
0.805
0.825
0.810
0.840
0.815
0.800
0.760
0.700
0.650
0.580
0.525
0.440
0.385
0.335
0.265
0.225
0.170
0.140
0.110
0.090
0.050
0.050
0.040
0.020
0.015
0.000
0.005
0.025
0.020
0.010
0.000
0.000
0.005
0.005
0.005
-0.015
0.000
-0.005
0.005
0.010
0.000
-0.015
-0.015
0.000
-0.010
0.000
-0.005
-0.020
-0.025
-0.010
-0.030
-0.025
-0.035
0.000
-0.025
-0.025
-0.045
-0.040
-0.045
-0.020
0.000
-0.010
0.010
0.010
0.040
0.050
0.060
0.060
0.030
0.010
-0.035
-0.020
-0.040
-0.065
-0.095
-0.100
-0.110
-0.115
-0.120
-0.100
-0.075
-0.100
-0.090
-0.070
-0.075
-0.065
-0.090
-0.090
-0.080
-0.090
-0.095
-0.100
-0.095
-0.100
-0.130
-0.155
-0.155
-0.065
-0.005
-0.080
-0.460
-1.080
-1.720
-2.360
-2.935
-3.330
-3.275
-2.745
-2.110
-1.550
-1.160
-0.885
-0.690
-0.550
-0.435
-0.370
-0.295
-0.215
-0.150
-0.095
-0.025
0.050
0.085
0.100
0.120
0.145
0.175
0.180
0.190
0.205
0.210
0.230
0.265
0.255
0.250
0.280
0.275
0.310
0.305
0.310
0.320
0.345
0.355
0.400
0.405
0.445
0.485
0.505
0.530
0.580
0.585
0.620
0.645
0.695
0.690
0.730
0.740
0.735
0.750
0.745
0.735
0.700
0.645
0.580
0.510
0.450
0.385
0.305
0.240
0.200
0.155
0.090
0.035
0.015
0.005
-0.030
-0.020
-0.065
-0.060
-0.065
-0.080
-0.090
-0.080
-0.075
-0.095
-0.090
-0.095
-0.110
-0.105
-0.090
-0.095
-0.085
-0.085
-0.125
-0.120
-0.120
-0.095
-0.100
-0.105
-0.100
-0.130
-0.120
-0.115
-0.110
-0.115
-0.135
-0.135
-0.145
-0.130
-0.145
-0.135
-0.145
-0.160
-0.185
-0.170
-0.150
-0.125
-0.100
-0.090
-0.055
-0.045
-0.055
-0.050
-0.095
-0.135
-0.130
-0.155
-0.155
-0.180
-0.205
-0.215
-0.230
-0.210
-0.190
-0.170
-0.170
-0.175
-0.155
-0.130
-0.145
-0.190
-0.190
-0.185
-0.185
-0.190
-0.180
-0.190
-0.175
-0.200
-0.230
-0.245
-0.210
-0.140
-0.110
-0.330
-0.815
-1.455
-2.095
-2.735
-3.240
-3.380
-3.005
-2.370
-1.735
-1.325
-1.035
-0.790
-0.600
-0.505
-0.440
-0.350
-0.280
-0.200
-0.155
-0.045
0.010
0.040
0.055
0.040
0.050
0.060
0.105
0.120
0.145
0.150
0.150
0.155
0.155
0.170
0.210
0.210
0.230
0.240
0.255
0.265
0.285
0.325
0.335
0.365
0.390
0.420
0.455
0.470
0.495
0.560
0.565
0.625
0.635
0.670
0.695
0.710
0.695
0.695
0.710
0.660
0.630
0.575
0.515
0.475
0.420
0.315
0.270
0.195
0.155
0.095
0.050
-0.005
-0.050
-0.070
-0.060
-0.095
-0.100
-0.125
-0.115
-0.120
-0.115
-0.135
-0.135
-0.150
-0.135
-0.125
-0.135
-0.155
-0.150
-0.150
-0.165
-0.165
-0.165
-0.170
-0.160
-0.150
-0.170
-0.145
-0.150
-0.160
-0.190
-0.185
-0.170
-0.190
-0.200
-0.190
-0.200
-0.220
-0.210
-0.215
-0.225
-0.220
-0.220
-0.220
-0.210
-0.190
-0.180
-0.135
-0.120
-0.105
-0.095
-0.130
-0.140
-0.200
-0.220
-0.230
-0.210
-0.260
-0.285
-0.280
-0.275
-0.265
-0.250
-0.250
-0.265
-0.265
-0.240
-0.240
-0.260
-0.270
-0.280
-0.270
-0.290
-0.260
-0.280
-0.290
-0.305
-0.310
-0.340
-0.345
-0.280
-0.200
-0.310
-0.685
-1.310
-1.950
-2.585
-3.130
-3.435
-3.275
-2.640
-2.005
-1.545
-1.225
-0.985
-0.815
-0.690
-0.600
-0.545
-0.440
-0.370
-0.305
-0.215
-0.160
-0.115
-0.075
-0.050
-0.045
-0.035
-0.025
0.005
0.000
0.020
0.035
0.045
0.050
0.075
0.085
0.095
0.080
0.110
0.120
0.135
0.170
0.205
0.200
0.220
0.255
0.290
0.345
0.375
0.390
0.415
0.450
0.490
0.510
0.510
0.555
0.585
0.605
0.620
0.615
0.605
0.575
0.545
0.470
0.385
0.330
0.275
0.205
0.130
0.080
0.035
-0.010
-0.075
-0.115
-0.125
-0.135
-0.170
-0.170
-0.150
-0.180
-0.195
-0.195
-0.195
-0.190
-0.200
-0.200
-0.210
-0.215
-0.210
-0.200
-0.200
-0.200
-0.185
-0.200
-0.200
-0.215
-0.190
-0.205
-0.210
-0.210
-0.220
-0.220
-0.230
-0.240
-0.205
-0.210
-0.205
-0.215
-0.225
-0.235
-0.240
-0.235
-0.240
-0.240
-0.240
-0.225
-0.210
-0.160
-0.165
-0.170
-0.130
-0.140
-0.155
-0.160
-0.210
-0.250
-0.270
-0.265
-0.300
-0.305
-0.320
-0.300
-0.260
-0.265
-0.260
-0.260
-0.250
-0.245
-0.255
-0.260
-0.280
-0.280
-0.285
-0.280
-0.280
-0.295
-0.290
-0.290
-0.300
-0.330
-0.335
-0.265
-0.205
-0.355
-0.770
-1.410
-2.045
-2.660
-3.205
-3.500
-3.280
-2.670
-2.045
-1.595
-1.275
-1.030
-0.845
-0.700
-0.590
-0.525
-0.440
-0.370
-0.295
-0.195
-0.125
-0.080
-0.075
-0.045
-0.040
-0.025
-0.020
0.000
0.025
0.050
0.065
0.070
0.055
0.070
0.095
0.105
0.120
0.135
0.155
0.165
0.175
0.225
0.220
0.245
0.275
0.305
0.325
0.370
0.425
0.455
0.475
0.510
0.560
0.585
0.605
0.625
0.635
0.660
0.660
0.645
0.625
0.585
0.540
0.435
0.360
0.315
0.270
0.200
0.125
0.070
0.020
-0.010
-0.070
-0.090
-0.115
-0.125
-0.135
-0.175
-0.175
-0.170
-0.190
-0.180
-0.180
-0.160
-0.185
-0.205
-0.210
-0.230
-0.205
-0.215
-0.215
-0.215
-0.205
-0.220
-0.220
-0.220
-0.210
-0.220
-0.210
-0.215
-0.225
-0.225
-0.235
-0.245
-0.245
-0.255
-0.230
-0.230
-0.240
-0.250
-0.250
-0.265
-0.255
-0.260
-0.260
-0.205
-0.200
-0.190
-0.180
-0.155
-0.170
-0.175
-0.215
-0.230
-0.250
-0.260
-0.290
-0.300
-0.330
-0.345
-0.310
-0.305
-0.305
-0.295
-0.290
-0.295
-0.260
-0.280
-0.290
-0.270
-0.290
-0.295
-0.310
-0.290
-0.290
-0.310
-0.305
-0.320
-0.330
-0.320
-0.295
-0.220
-0.270
-0.655
-1.250
-1.890
-2.530
-3.150
-3.535
-3.485
-2.945
-2.310
-1.775
-1.405
-1.120
-0.925
-0.785
-0.640
-0.595
-0.500
-0.425
-0.325
-0.240
-0.150
-0.090
-0.065
-0.040
-0.040
0.010
0.000
0.030
0.040
0.035
0.070
0.085
0.075
0.105
0.135
0.140
0.165
0.175
0.195
0.200
0.205
0.230
0.275
0.295
0.330
0.350
0.370
0.395
0.425
0.470
0.525
0.540
0.585
0.615
0.635
0.660
0.675
0.690
0.715
0.685
0.660
0.630
0.560
0.510
0.430
0.345
0.295
0.255
0.190
0.125
0.090
0.010
-0.025
-0.050
-0.060
-0.075
-0.095
-0.105
-0.140
-0.135
-0.140
-0.135
-0.130
-0.110
-0.130
-0.125
-0.135
-0.130
-0.125
-0.120
-0.110
-0.125
-0.120
-0.125
-0.130
-0.160
-0.140
-0.130
-0.145
-0.145
-0.150
-0.160
-0.145
-0.160
-0.170
-0.145
-0.160
-0.170
-0.160
-0.170
-0.175
-0.170
-0.170
-0.145
-0.150
-0.130
-0.130
-0.110
-0.100
-0.080
-0.040
-0.045
-0.065
-0.090
-0.130
-0.155
-0.175
-0.175
-0.195
-0.195
-0.200
-0.195
-0.175
-0.160
-0.145
-0.160
-0.165
-0.150
-0.155
-0.155
-0.160
-0.180
-0.175
-0.185
-0.180
-0.200
-0.180
-0.185
-0.205
-0.220
-0.230
-0.165
-0.110
-0.220
-0.595
-1.215
-1.855
-2.495
-3.130
-3.450
-3.260
-2.625
-1.990
-1.480
-1.170
-0.915
-0.720
-0.580
-0.480
-0.415
-0.345
-0.280
-0.175
-0.090
-0.030
0.035
0.060
0.075
0.085
0.115
0.140
0.155
0.155
0.175
0.185
0.180
0.195
0.215
0.240
0.255
0.250
0.280
0.295
0.310
0.335
0.350
0.370
0.415
0.460
0.450
0.505
0.545
0.560
0.615
0.650
0.675
0.705
0.750
0.795
0.800
0.825
0.840
0.850
0.845
0.820
0.765
0.725
0.650
0.600
0.525
0.405
0.365
0.280
0.215
0.165
0.130
0.080
0.040
0.035
0.005
0.000
-0.030
-0.030
-0.045
-0.040
-0.020
-0.025
-0.035
-0.055
-0.040
-0.035
-0.030
-0.045
-0.035
-0.020
-0.040
-0.050
-0.045
-0.025
-0.030
-0.020
-0.040
-0.025
-0.035
-0.040
-0.030
-0.045
-0.035
-0.020
-0.030
-0.035
-0.050
-0.045
-0.060
-0.055
-0.065
-0.050
-0.075
-0.050
-0.060
-0.020
-0.015
0.015
0.025
0.065
0.045
0.025
0.000
-0.015
-0.025
-0.040
-0.040
-0.070
-0.070
-0.095
-0.110
-0.090
-0.070
-0.070
-0.055
-0.075
-0.055
-0.050
-0.065
-0.075
-0.070
-0.070
-0.080
-0.095
-0.080
-0.060
-0.085
-0.110
-0.120
-0.120
-0.055
0.000
-0.025
-0.350
-0.975
-1.615
-2.255
-2.895
-3.400
-3.440
-2.905
-2.270
-1.635
-1.215
-0.925
-0.705
-0.545
-0.405
-0.320
-0.230
-0.150
-0.065
0.025
0.080
0.150
0.205
0.235
0.270
0.285
0.300
0.330
0.340
0.350
0.370
0.390
0.395
0.405
0.415
0.440
0.460
0.480
0.495
0.530
0.550
0.540
0.575
0.600
0.620
0.665
0.685
0.715
0.745
0.780
0.825
0.865
0.885
0.930
0.955
0.985
0.995
1.020
1.005
1.030
1.000
0.955
0.930
0.850
0.800
0.695
0.635
0.580
0.505
0.425
0.360
0.330
0.290
0.245
0.205
0.190
0.180
0.135
0.140
0.145
0.120
0.125
0.135
0.140
0.135
0.125
0.115
0.105
0.100
0.115
0.110
0.100
0.115
0.115
0.135
0.115
0.105
0.105
0.095
0.090
0.100
0.110
0.090
0.095
0.075
0.080
0.090
0.085
0.065
0.050
0.060
0.055
0.045
0.045
0.060
0.065
0.085
0.095
0.160
0.160
0.160
0.150
0.145
0.115
0.080
0.075
0.055
0.035
0.015
0.000
-0.015
-0.025
0.000
0.005
0.010
0.025
0.030
0.015
0.010
0.015
0.010
0.000
0.010
-0.010
-0.010
-0.020
-0.015
-0.015
-0.045
-0.035
-0.055
-0.005
0.075
0.005
-0.335
-0.975
-1.615
-2.255
-2.835
-3.225
-3.130
-2.565
-1.930
-1.455
-1.120
-0.840
-0.635
-0.465
-0.365
-0.275
-0.200
-0.125
-0.035
0.055
0.125
0.165
0.200
0.250
0.245
0.260
0.275
0.300
0.315
0.325
0.315
0.345
0.370
0.370
0.390
0.420
0.420
0.410
0.460
0.470
0.490
0.505
0.520
0.555
0.580
0.620
0.625
0.665
0.685
0.730
0.790
0.815
0.865
0.860
0.900
0.905
0.930
0.945
0.935
0.925
0.895
0.885
0.835
0.755
0.705
0.630
0.560
0.490
0.445
0.360
0.320
0.295
0.235
0.210
0.205
0.180
0.155
0.150
0.135
0.105
0.145
0.095
0.115
0.115
0.140
0.120
0.120
0.115
0.115
0.120
0.125
0.120
0.115
0.115
0.120
0.110
0.105
0.115
0.130
0.130
0.125
0.095
0.120
0.105
0.120
0.120
0.110
0.110
0.105
0.130
0.115
0.095
0.085
0.125
0.110
0.155
0.160
0.185
0.190
0.205
0.195
0.205
0.175
0.165
0.130
0.130
0.105
0.090
0.075
0.070
0.045
0.075
0.085
0.080
0.065
0.090
0.105
0.120
0.120
0.100
0.105
0.075
0.085
0.095
0.080
0.080
0.080
0.040
0.030
0.035
0.055
0.135
0.115
-0.145
-0.700
-1.340
-1.980
-2.620
-3.135
-3.225
-2.735
-2.100
-1.510
-1.090
-0.825
-0.605
-0.435
-0.275
-0.195
-0.115
-0.025
0.055
0.135
0.215
0.290
0.315
0.360
0.380
0.380
0.415
0.415
0.420
0.425
0.435
0.450
0.470
0.475
0.495
0.495
0.525
0.545
0.565
0.585
0.595
0.610
0.650
0.655
0.685
0.700
0.740
0.750
0.815
0.830
0.890
0.900
0.915
0.965
0.990
1.010
1.035
1.030
1.035
1.045
1.025
0.995
0.950
0.905
0.860
0.750
0.675
0.620
0.565
0.490
0.410
0.385
0.330
0.275
0.265
0.245
0.220
0.215
0.210
0.190
0.170
0.160
0.165
0.165
0.175
0.170
0.170
0.155
0.175
0.170
0.165
0.175
0.175
0.175
0.170
0.180
0.160
0.145
0.145
0.130
0.145
0.135
0.135
0.145
0.120
0.120
0.130
0.125
0.110
0.105
0.130
0.095
0.105
0.120
0.125
0.125
0.140
0.170
0.180
0.185
0.200
0.205
0.180
0.145
0.125
0.105
0.070
0.055
0.040
0.035
0.030
0.040
0.075
0.075
0.055
0.060
0.080
0.075
0.075
0.100
0.065
0.045
0.055
0.035
0.040
0.055
0.065
0.050
0.020
0.005
0.010
0.080
0.115
-0.070
-0.555
-1.195
-1.835
-2.475
-3.115
-3.315
-2.965
-2.330
-1.695
-1.225
-0.910
-0.700
-0.485
-0.380
-0.255
-0.185
-0.110
0.000
0.065
0.135
0.215
0.275
0.285
0.320
0.340
0.355
0.355
0.385
0.405
0.405
0.425
0.420
0.435
0.445
0.465
0.480
0.495
0.510
0.540
0.545
0.565
0.605
0.625
0.655
0.680
0.750
0.755
0.795
0.815
0.845
0.895
0.930
0.935
1.015
1.030
1.030
1.055
1.080
1.070
1.065
1.015
0.975
0.900
0.845
0.755
0.700
0.610
0.540
0.490
0.405
0.365
0.310
0.280
0.255
0.230
0.205
0.205
0.200
0.175
0.175
0.175
0.155
0.190
0.165
0.175
0.185
0.175
0.150
0.145
0.140
0.135
0.125
0.120
0.130
0.110
0.130
0.125
0.130
0.125
0.140
0.115
0.110
0.110
0.115
0.140
0.110
0.120
0.120
0.090
0.060
0.070
0.080
0.080
0.105
0.140
0.135
0.140
0.170
0.155
0.175
0.170
0.155
0.125
0.090
0.090
0.075
0.060
0.055
0.030
0.010
0.015
0.015
0.040
0.025
0.025
0.030
0.040
0.050
0.055
0.050
0.035
0.030
0.035
0.055
0.060
0.060
0.000
-0.015
-0.060
-0.060
0.040
0.075
-0.075
-0.565
-1.205
-1.845
-2.485
-3.125
-3.410
-3.125
-2.490
-1.855
-1.315
-1.040
-0.775
-0.580
-0.475
-0.375
-0.300
-0.210
-0.110
-0.020
0.040
0.105
0.155
0.205
0.245
0.275
0.285
0.270
0.270
0.305
0.330
0.315
0.325
0.345
0.375
0.400
0.400
0.430
0.445
0.495
0.510
0.500
0.550
0.555
0.575
0.595
0.610
0.660
0.740
0.775
0.830
0.845
0.880
0.885
0.910
0.950
1.010
1.020
1.005
1.010
0.995
0.945
0.900
0.850
0.770
0.700
0.620
0.530
0.440
0.355
0.340
0.290
0.250
0.185
0.155
0.135
0.100
0.090
0.090
0.090
0.080
0.065
0.065
0.055
0.065
0.100
0.070
0.070
0.065
0.035
0.010
0.035
0.050
0.055
0.050
0.010
0.025
0.015
0.015
0.015
0.020
0.025
0.020
0.010
0.025
0.000
0.025
0.010
0.000
-0.010
0.015
0.000
-0.020
0.000
0.005
0.030
0.035
0.050
0.065
0.075
0.100
0.070
0.060
0.005
0.005
0.000
0.005
-0.030
-0.040
-0.065
-0.055
-0.060
-0.025
-0.015
-0.030
-0.040
-0.040
-0.035
-0.040
-0.045
-0.050
-0.035
-0.045
-0.025
-0.055
-0.035
-0.055
-0.080
-0.120
-0.130
-0.085
0.010
0.045
-0.180
-0.740
-1.380
-2.020
-2.660
-3.190
-3.360
-2.920
-2.285
-1.705
-1.305
-1.025
-0.800
-0.595
-0.450
-0.355
-0.255
-0.160
-0.005
0.055
0.095
0.170
0.195
0.215
0.260
0.295
0.305
0.310
0.320
0.345
0.370
0.380
0.400
0.390
0.410
0.410
0.430
0.460
0.485
0.475
0.505
0.510
0.520
0.555
0.600
0.630
0.645
0.710
0.725
0.775
0.790
0.840
0.850
0.890
0.925
0.950
0.970
0.940
0.950
0.935
0.945
0.915
0.850
0.780
0.710
0.655
0.545
0.500
0.440
0.370
0.295
0.265
0.175
0.165
0.115
0.085
0.090
0.080
0.090
0.060
0.055
0.040
0.040
0.025
0.015
0.005
0.000
0.015
0.030
0.005
0.015
0.010
0.030
0.020
0.000
0.010
0.000
0.035
0.070
0.120
0.070
0.040
0.040
0.025
0.005
-0.015
-0.060
-0.050
-0.055
-0.050
-0.080
-0.075
-0.080
-0.085
-0.085
-0.060
-0.060
-0.045
-0.035
0.000
0.020
0.060
0.065
0.040
-0.015
-0.070
-0.100
-0.120
-0.155
-0.155
-0.175
-0.160
-0.105
-0.075
-0.055
-0.045
-0.060
-0.090
-0.135
-0.210
-0.260
-0.280
-0.250
-0.260
-0.250
-0.225
-0.235
-0.185
-0.190
-0.215
-0.210
-0.180
-0.110
-0.100
-0.355
-0.920
-1.560
-2.200
-2.840
-3.300
-3.425
-3.005
-2.370
-1.810
-1.430
-1.160
-0.920
-0.755
-0.580
-0.495
-0.455
-0.420
-0.325
-0.225
-0.155
-0.050
0.000
0.020
-0.010
0.000
0.020
0.060
0.065
0.095
0.085
0.080
0.090
0.110
0.115
0.140
0.195
0.200
0.220
0.220
0.225
0.235
0.250
0.265
0.320
0.345
0.380
0.385
0.425
0.465
0.485
0.500
0.530
0.565
0.575
0.605
0.610
0.665
0.710
0.750
0.765
0.715
0.600
0.455
0.365
0.305
0.225
0.185
0.135
0.085
0.010
-0.025
-0.035
-0.085
-0.115
-0.080
-0.060
-0.090
-0.125
-0.145
-0.190
-0.240
-0.260
-0.230
-0.210
-0.195
-0.190
-0.185
-0.185
-0.165
-0.205
-0.235
-0.235
-0.235
-0.255
-0.270
-0.210
-0.185
-0.205
-0.210
-0.230
-0.210
-0.200
-0.185
-0.135
-0.120
-0.130
-0.155
-0.215
-0.305
-0.335
-0.330
-0.310
-0.295
-0.250
-0.200
-0.160
-0.145
-0.145
-0.200
-0.225
-0.210
-0.150
-0.135
-0.150
-0.210
-0.220
-0.200
-0.245
-0.240
-0.305
-0.315
-0.265
-0.225
-0.195
-0.250
-0.320
-0.365
-0.320
-0.270
-0.285
-0.290
-0.295
-0.305
-0.320
-0.335
-0.345
-0.335
-0.325
-0.285
-0.250
-0.310
-0.360
-0.315
-0.365
-0.650
-1.210
-1.850
-2.490
-3.040
-3.450
-3.470
-2.925
-2.290
-1.745
-1.395
-1.125
-0.935
-0.795
-0.665
-0.585
-0.480
-0.350
-0.250
-0.190
-0.130
-0.085
-0.075
-0.100
-0.115
-0.045
0.005
0.020
0.025
-0.030
-0.035
-0.050
-0.020
0.055
0.075
0.110
0.090
0.085
0.105
0.160
0.215
0.255
0.290
0.265
0.295
0.365
0.365
0.340
0.355
0.380
0.430
0.485
0.550
0.540
0.555
0.610
0.690
0.765
0.720
0.650
0.590
0.560
0.550
0.500
0.450
0.340
0.290
0.215
0.155
0.135
0.230
0.295
0.185
-0.100
-0.365
-0.430
-0.365
-0.330
-0.295
-0.245
-0.190
-0.190
-0.240
-0.280
-0.290
-0.280
-0.270
-0.270
-0.260
-0.245
-0.235
-0.165
-0.075
-0.010
-0.055
-0.240
-0.370
-0.400
-0.370
-0.365
-0.345
-0.310
-0.300
-0.280
-0.295
-0.290
-0.340
-0.345
-0.305
-0.260
-0.215
-0.150
-0.110
-0.105
-0.165
-0.340
-0.455
-0.415
-0.340
-0.275
-0.230
-0.205
-0.155
-0.095
-0.120
-0.225
-0.225
-0.160
-0.195
-0.320
-0.410
-0.425
-0.420
-0.360
-0.320
-0.335
-0.335
-0.335
-0.330
-0.355
-0.365
-0.325
-0.270
-0.175
-0.205
-0.275
-0.360
-0.420
-0.440
-0.490
-0.485
-0.415
-0.290
-0.310
-0.560
-1.100
-1.740
-2.325
-2.840
-3.290
-3.350
-2.900
-2.265
-1.745
-1.425
-1.165
-0.900
-0.625
-0.380
-0.345
-0.480
-0.585
-0.570
-0.455
-0.295
-0.195
-0.145
-0.100
-0.100
-0.100
-0.080
-0.045
-0.055
-0.035
-0.020
0.010
0.000
0.030
0.035
0.080
0.125
0.135
0.140
0.155
0.185
0.175
0.145
0.150
0.190
0.225
0.225
0.235
0.270
0.310
0.350
0.380
0.425
0.475
0.510
0.540
0.555
0.610
0.630
0.595
0.545
0.520
0.530
0.475
0.385
0.275
0.265
0.190
0.080
0.035
0.025
-0.015
-0.100
-0.170
-0.205
-0.230
-0.230
-0.245
-0.215
-0.200
-0.215
-0.235
-0.275
-0.260
-0.265
-0.265
-0.265
-0.290
-0.280
-0.270
-0.295
-0.310
-0.300
-0.310
-0.300
-0.325
-0.310
-0.290
-0.265
-0.270
-0.300
-0.315
-0.310
-0.330
-0.355
-0.355
-0.365
-0.395
-0.355
-0.360
-0.350
-0.370
-0.390
-0.410
-0.400
-0.390
-0.385
-0.365
-0.340
-0.310
-0.305
-0.285
-0.300
-0.315
-0.360
-0.365
-0.370
-0.360
-0.375
-0.405
-0.420
-0.435
-0.445
-0.445
-0.430
-0.445
-0.435
-0.445
-0.420
-0.415
-0.425
-0.440
-0.455
-0.460
-0.455
-0.445
-0.450
-0.440
-0.495
-0.475
-0.480
-0.520
-0.475
-0.410
-0.355
-0.565
-1.020
-1.640
-2.240
-2.770
-3.230
-3.430
-3.160
-2.580
-2.045
-1.655
-1.415
-1.240
-1.055
-0.905
-0.810
-0.745
-0.670
-0.590
-0.505
-0.435
-0.345
-0.325
-0.300
-0.265
-0.250
-0.240
-0.245
-0.205
-0.195
-0.195
-0.175
-0.155
-0.135
-0.160
-0.140
-0.145
-0.125
-0.090
-0.085
-0.070
-0.070
-0.025
-0.035
-0.005
0.025
0.055
0.085
0.120
0.165
0.215
0.220
0.265
0.305
0.310
0.345
0.360
0.365
0.370
0.365
0.385
0.345
0.280
0.265
0.190
0.135
0.055
-0.015
-0.070
-0.135
-0.175
-0.220
-0.275
-0.320
-0.355
-0.375
-0.405
-0.435
-0.445
-0.440
-0.450
-0.435
-0.445
-0.440
-0.460
-0.455
-0.455
-0.450
-0.455
-0.460
-0.480
-0.445
-0.460
-0.455
-0.450
-0.455
-0.450
-0.410
-0.425
-0.445
-0.470
-0.480
-0.475
-0.465
-0.450
-0.470
-0.450
-0.425
-0.465
-0.430
-0.450
-0.445
-0.485
-0.455
-0.465
-0.470
-0.445
-0.425
-0.415
-0.415
-0.395
-0.375
-0.385
-0.410
-0.425
-0.460
-0.490
-0.495
-0.530
-0.540
-0.565
-0.550
-0.545
-0.520
-0.540
-0.505
-0.510
-0.480
-0.475
-0.485
-0.500
-0.510
-0.480
-0.505
-0.500
-0.490
-0.485
-0.495
-0.480
-0.520
-0.540
-0.540
-0.445
-0.395
-0.545
-0.985
-1.625
-2.265
-2.835
-3.275
-3.550
-3.355
-2.720
-2.115
-1.705
-1.410
-1.190
-1.020
-0.890
-0.830
-0.700
-0.635
-0.550
-0.495
-0.405
-0.370
-0.340
-0.285
-0.250
-0.215
-0.210
-0.210
-0.180
-0.190
-0.160
-0.155
-0.110
-0.120
-0.110
-0.095
-0.090
-0.080
-0.065
-0.050
-0.015
0.010
0.025
0.035
0.065
0.100
0.125
0.145
0.195
0.215
0.270
0.300
0.325
0.370
0.400
0.425
0.465
0.495
0.500
0.515
0.505
0.500
0.420
0.390
0.325
0.250
0.155
0.090
0.020
-0.040
-0.085
-0.120
-0.195
-0.210
-0.255
-0.285
-0.295
-0.305
-0.340
-0.355
-0.365
-0.355
-0.365
-0.360
-0.370
-0.360
-0.365
-0.375
-0.365
-0.370
-0.380
-0.355
-0.345
-0.370
-0.385
-0.370
-0.375
-0.370
-0.385
-0.385
-0.390
-0.370
-0.355
-0.375
-0.395
-0.390
-0.380
-0.385
-0.395
-0.410
-0.410
-0.410
-0.435
-0.440
-0.410
-0.415
-0.410
-0.395
-0.340
-0.345
-0.320
-0.340
-0.345
-0.350
-0.380
-0.405
-0.420
-0.430
-0.430
-0.475
-0.480
-0.445
-0.445
-0.460
-0.440
-0.445
-0.445
-0.420
-0.410
-0.425
-0.445
-0.425
-0.425
-0.445
-0.425
-0.430
-0.425
-0.425
-0.435
-0.485
-0.475
-0.410
-0.325
-0.405
-0.795
-1.430
-2.070
-2.710
-3.265
-3.585
-3.445
-2.845
-2.235
-1.760
-1.430
-1.210
-1.010
-0.835
-0.755
-0.670
-0.570
-0.520
-0.430
-0.345
-0.250
-0.200
-0.160
-0.150
-0.125
-0.100
-0.075
-0.045
-0.065
-0.035
-0.005
0.005
0.040
0.055
0.035
0.055
0.080
0.095
0.140
0.150
0.165
0.195
0.210
0.240
0.285
0.310
0.345
0.400
0.450
0.495
0.525
0.580
0.575
0.655
0.685
0.715
0.745
0.745
0.735
0.720
0.670
0.650
0.595
0.500
0.425
0.345
0.275
0.205
0.130
0.070
0.000
-0.070
-0.100
-0.120
-0.140
-0.160
-0.185
-0.205
-0.190
-0.195
-0.195
-0.195
-0.175
-0.175
-0.175
-0.170
-0.165
-0.170
-0.180
-0.175
-0.165
-0.170
-0.160
-0.170
-0.185
-0.160
-0.185
-0.175
-0.180
-0.170
-0.150
-0.145
-0.150
-0.180
-0.180
-0.175
-0.170
-0.170
-0.175
-0.180
-0.190
-0.170
-0.155
-0.165
-0.145
-0.110
-0.090
-0.085
-0.070
-0.065
-0.065
-0.100
-0.130
-0.140
-0.155
-0.160
-0.160
-0.200
-0.210
-0.200
-0.190
-0.175
-0.165
-0.175
-0.200
-0.180
-0.155
-0.160
-0.145
-0.190
-0.155
-0.175
-0.165
-0.170
-0.155
-0.160
-0.180
-0.200
-0.205
-0.145
-0.045
-0.075
-0.330
-0.930
-1.565
-2.160
-2.685
-3.125
-3.225
-2.805
-2.170
-1.640
-1.250
-0.970
-0.755
-0.585
-0.490
-0.405
-0.320
-0.230
-0.180
-0.100
-0.045
0.000
0.030
0.060
0.065
0.115
0.115
0.125
0.135
0.175
0.195
0.200
0.215
0.215
0.250
0.250
0.260
0.275
0.275
0.330
0.345
0.360
0.390
0.395
0.415
0.455
0.465
0.505
0.565
0.590
0.600
0.630
0.685
0.720
0.725
0.730
0.750
0.775
0.770
0.755
0.745
0.685
0.630
0.610
0.525
0.465
0.380
0.300
0.270
0.200
0.165
0.100
0.075
0.040
0.010
-0.005
-0.010
0.000
-0.015
-0.050
-0.030
-0.035
-0.065
-0.070
-0.050
-0.065
-0.060
-0.030
-0.050
-0.060
-0.040
-0.050
-0.025
-0.035
-0.035
-0.030
-0.030
-0.025
-0.035
-0.040
-0.030
-0.025
-0.030
-0.040
-0.050
-0.060
-0.055
-0.040
-0.045
-0.075
-0.080
-0.070
-0.060
-0.060
-0.055
-0.030
-0.020
0.000
0.005
0.020
0.010
-0.005
-0.030
-0.070
-0.065
-0.090
-0.070
-0.095
-0.125
-0.110
-0.125
-0.095
-0.090
-0.065
-0.080
-0.090
-0.065
-0.060
-0.065
-0.090
-0.075
-0.065
-0.100
-0.095
-0.100
-0.095
-0.095
-0.110
-0.120
-0.125
-0.075
0.010
-0.060
-0.430
-1.035
-1.675
-2.285
-2.785
-3.130
-3.080
-2.495
-1.885
-1.410
-1.085
-0.845
-0.665
-0.510
-0.430
-0.340
-0.275
-0.190
-0.110
-0.020
0.030
0.085
0.095
0.140
0.155
0.175
0.170
0.190
0.215
0.220
0.240
0.235
0.260
0.270
0.275
0.290
0.300
0.300
0.350
0.370
0.375
0.395
0.435
0.460
0.470
0.505
0.540
0.580
0.630
0.670
0.710
0.750
0.765
0.820
0.845
0.865
0.885
0.880
0.875
0.875
0.850
0.815
0.755
0.675
0.630
0.560
0.470
0.385
0.325
0.270
0.220
0.160
0.125
0.090
0.090
0.035
0.005
0.015
0.010
-0.010
-0.005
-0.020
-0.035
-0.050
-0.020
-0.005
-0.015
-0.025
-0.010
-0.005
-0.040
0.000
-0.015
-0.020
-0.025
-0.015
-0.010
-0.025
-0.035
-0.025
-0.020
-0.010
-0.005
0.000
-0.015
-0.025
-0.010
-0.045
-0.035
-0.035
-0.060
-0.050
-0.060
-0.050
-0.045
-0.030
0.005
0.005
0.030
0.020
0.025
0.000
-0.010
-0.025
-0.045
-0.065
-0.085
-0.100
-0.115
-0.115
-0.100
-0.070
-0.070
-0.085
-0.095
-0.080
-0.070
-0.085
-0.080
-0.110
-0.115
-0.100
-0.085
-0.115
-0.105
-0.140
-0.130
-0.135
-0.155
-0.150
-0.115
-0.020
-0.090
-0.410
-0.995
-1.635
-2.275
-2.780
-3.200
-3.270
-2.815
-2.180
-1.665
-1.275
-0.970
-0.775
-0.620
-0.480
-0.420
-0.360
-0.255
-0.170
-0.095
-0.025
0.005
0.050
0.090
0.135
0.130
0.140
0.155
0.170
0.195
0.185
0.220
0.205
0.235
0.240
0.260
0.255
0.260
0.305
0.295
0.310
0.345
0.375
0.390
0.420
0.465
0.490
0.525
0.585
0.610
0.665
0.675
0.710
0.715
0.785
0.785
0.830
0.835
0.850
0.845
0.815
0.775
0.730
0.670
0.600
0.495
0.420
0.365
0.300
0.230
0.180
0.110
0.075
0.035
0.025
0.000
-0.015
-0.010
-0.035
-0.030
-0.030
-0.035
-0.050
-0.060
-0.040
-0.020
-0.065
-0.050
-0.045
-0.045
-0.060
-0.045
-0.035
-0.040
-0.045
-0.030
-0.035
-0.015
-0.030
-0.040
-0.025
-0.030
-0.025
-0.035
-0.070
-0.045
-0.030
-0.050
-0.080
-0.075
-0.075
-0.050
-0.085
-0.080
-0.080
-0.055
-0.030
-0.015
0.015
0.025
0.035
0.005
-0.010
-0.050
-0.050
-0.055
-0.095
-0.105
-0.100
-0.145
-0.140
-0.135
-0.125
-0.095
-0.090
-0.105
-0.110
-0.090
-0.075
-0.100
-0.100
-0.100
-0.105
-0.120
-0.120
-0.110
-0.110
-0.130
-0.155
-0.165
-0.165
-0.105
-0.020
-0.060
-0.440
-1.070
-1.710
-2.350
-2.920
-3.270
-3.260
-2.705
-2.085
-1.595
-1.245
-0.980
-0.760
-0.600
-0.490
-0.400
-0.335
-0.235
-0.170
-0.080
0.010
0.065
0.095
0.115
0.150
0.175
0.185
0.185
0.210
0.215
0.260
0.250
0.255
0.255
0.290
0.300
0.320
0.315
0.355
0.345
0.375
0.395
0.450
0.460
0.485
0.515
0.530
0.560
0.605
0.660
0.680
0.695
0.730
0.780
0.815
0.840
0.865
0.880
0.870
0.870
0.865
0.830
0.795
0.720
0.650
0.580
0.495
0.410
0.320
0.265
0.215
0.170
0.140
0.105
0.060
0.045
0.010
0.025
-0.005
-0.010
-0.020
-0.015
-0.040
-0.035
-0.040
-0.045
-0.040
-0.035
-0.040
-0.040
-0.055
-0.065
-0.050
-0.040
-0.050
-0.050
-0.060
-0.060
-0.060
-0.055
-0.030
-0.040
-0.050
-0.055
-0.060
-0.055
-0.055
-0.060
-0.080
-0.060
-0.090
-0.090
-0.065
-0.080
-0.055
-0.055
-0.040
-0.035
-0.005
-0.010
-0.005
-0.025
-0.050
-0.065
-0.075
-0.095
-0.105
-0.115
-0.145
-0.185
-0.175
-0.155
-0.130
-0.100
-0.135
-0.125
-0.125
-0.115
-0.120
-0.125
-0.105
-0.110
-0.145
-0.140
-0.130
-0.140
-0.155
-0.155
-0.175
-0.180
-0.160
-0.090
-0.020
-0.215
-0.730
-1.370
-2.010
-2.650
-3.160
-3.415
-3.135
-2.500
-1.905
-1.490
-1.170
-0.935
-0.730
-0.570
-0.480
-0.380
-0.280
-0.205
-0.120
-0.030
0.030
0.090
0.145
0.145
0.170
0.210
0.220
0.235
0.230
0.275
0.280
0.285
0.305
0.330
0.365
0.345
0.365
0.395
0.390
0.420
0.450
0.465
0.475
0.500
0.540
0.560
0.590
0.650
0.680
0.725
0.755
0.805
0.810
0.855
0.890
0.915
0.925
0.940
0.935
0.925
0.910
0.860
0.780
0.750
0.660
0.580
0.485
0.425
0.360
0.310
0.240
0.200
0.150
0.130
0.085
0.075
0.075
0.065
0.065
0.050
0.035
0.040
0.045
0.035
0.025
0.020
0.025
0.035
0.030
0.015
0.035
0.025
0.045
0.040
0.035
0.050
0.055
0.045
0.030
0.025
0.020
0.030
0.020
0.030
0.050
0.040
0.005
0.020
0.015
0.000
-0.005
0.010
0.000
0.005
0.020
0.025
0.040
0.035
0.060
0.085
0.090
0.090
0.075
0.055
0.030
0.015
0.010
0.000
-0.035
-0.055
-0.070
-0.080
-0.040
-0.050
-0.040
-0.040
-0.050
-0.035
-0.035
-0.050
-0.030
-0.055
-0.050
-0.040
-0.045
-0.055
-0.040
-0.045
-0.045
-0.050
-0.075
-0.090
-0.010
0.070
-0.025
-0.425
-1.055
-1.695
-2.290
-2.815
-3.155
-3.050
-2.485
-1.890
-1.440
-1.090
-0.825
-0.635
-0.495
-0.375
-0.290
-0.210
-0.120
-0.015
0.035
0.110
0.145
0.180
0.200
0.235
0.245
0.230
0.265
0.270
0.295
0.315
0.330
0.365
0.375
0.375
0.405
0.400
0.410
0.440
0.445
0.470
0.480
0.525
0.535
0.550
0.605
0.645
0.640
0.705
0.720
0.745
0.765
0.800
0.830
0.855
0.880
0.890
0.925
0.905
0.905
0.875
0.825
0.785
0.730
0.655
0.580
0.525
0.465
0.400
0.315
0.285
0.240
0.205
0.170
0.155
0.150
0.115
0.105
0.100
0.110
0.100
0.105
0.085
0.055
0.075
0.080
0.085
0.100
0.100
0.095
0.075
0.075
0.090
0.080
0.090
0.080
0.070
0.095
0.090
0.095
0.075
0.085
0.085
0.075
0.070
0.075
0.080
0.065
0.060
0.075
0.075
0.055
0.065
0.065
0.070
0.050
0.075
0.105
0.130
0.140
0.150
0.155
0.150
0.135
0.105
0.090
0.055
0.050
0.035
0.020
0.000
0.000
0.020
0.040
0.050
0.060
0.025
0.050
0.070
0.040
0.020
0.050
0.055
0.035
0.045
0.050
0.030
0.025
0.035
0.015
0.000
0.030
0.120
0.150
-0.060
-0.520
-1.160
-1.800
-2.430
-2.885
-3.110
-2.775
-2.140
-1.570
-1.185
-0.885
-0.640
-0.445
-0.335
-0.235
-0.140
-0.055
0.040
0.105
0.180
0.220
0.290
0.310
0.355
0.350
0.380
0.425
0.430
0.430
0.435
0.435
0.450
0.480
0.480
0.490
0.505
0.525
0.555
0.580
0.590
0.615
0.640
0.650
0.675
0.710
0.735
0.755
0.805
0.845
0.860
0.875
0.925
0.975
1.010
1.020
1.060
1.045
1.080
1.045
1.025
0.985
0.940
0.895
0.835
0.760
0.695
0.625
0.575
0.510
0.460
0.395
0.365
0.315
0.290
0.250
0.240
0.255
0.240
0.220
0.225
0.210
0.210
0.235
0.230
0.220
0.225
0.250
0.225
0.230
0.210
0.230
0.225
0.225
0.225
0.245
0.235
0.220
0.230
0.230
0.225
0.235
0.225
0.215
0.200
0.230
0.220
0.205
0.210
0.205
0.195
0.210
0.215
0.200
0.210
0.215
0.235
0.255
0.275
0.310
0.305
0.320
0.295
0.285
0.240
0.200
0.200
0.180
0.195
0.145
0.140
0.135
0.145
0.165
0.170
0.175
0.175
0.165
0.190
0.165
0.170
0.145
0.165
0.150
0.150
0.145
0.145
0.150
0.130
0.115
0.090
0.135
0.225
0.235
-0.030
-0.595
-1.235
-1.875
-2.515
-2.985
-3.110
-2.665
-2.030
-1.415
-1.030
-0.745
-0.500
-0.330
-0.220
-0.120
-0.025
0.045
0.115
0.210
0.295
0.355
0.395
0.420
0.450
0.460
0.490
0.485
0.495
0.515
0.535
0.555
0.570
0.570
0.580
0.595
0.600
0.630
0.630
0.645
0.665
0.710
0.705
0.755
0.775
0.800
0.835
0.875
0.885
0.950
0.955
0.990
1.020
1.065
1.110
1.125
1.145
1.155
1.175
1.155
1.150
1.105
1.050
1.005
0.925
0.840
0.795
0.700
0.645
0.570
0.525
0.490
0.450
0.400
0.355
0.350
0.335
0.315
0.295
0.310
0.305
0.285
0.285
0.295
0.290
0.300
0.290
0.310
0.300
0.290
0.305
0.280
0.300
0.300
0.305
0.320
0.325
0.305
0.315
0.325
0.305
0.290
0.285
0.285
0.260
0.275
0.285
0.285
0.310
0.290
0.275
0.285
0.285
0.275
0.260
0.285
0.285
0.320
0.355
0.370
0.350
0.390
0.375
0.380
0.345
0.325
0.270
0.275
0.260
0.255
0.235
0.225
0.205
0.245
0.255
0.270
0.260
0.260
0.260
0.285
0.260
0.260
0.255
0.265
0.245
0.245
0.260
0.265
0.250
0.235
0.195
0.210
0.210
0.295
0.335
0.145
-0.370
-1.010
-1.650
-2.290
-2.865
-3.100
-2.775
-2.140
-1.505
-1.050
-0.720
-0.490
-0.300
-0.155
-0.045
0.015
0.085
0.160
0.250
0.345
0.425
0.480
0.510
0.505
0.550
0.565
0.590
0.585
0.610
0.610
0.645
0.640
0.655
0.660
0.680
0.695
0.720
0.755
0.750
0.770
0.775
0.810
0.825
0.855
0.880
0.900
0.935
0.975
1.010
1.015
1.080
1.100
1.160
1.180
1.200
1.210
1.230
1.245
1.245
1.275
1.235
1.200
1.125
1.055
0.975
0.895
0.840
0.755
0.685
0.630
0.585
0.545
0.525
0.465
0.445
0.425
0.415
0.395
0.405
0.395
0.380
0.360
0.325
0.365
0.355
0.355
0.355
0.330
0.360
0.345
0.350
0.360
0.360
0.345
0.340
0.355
0.355
0.340
0.350
0.330
0.330
0.330
0.345
0.325
0.330
0.325
0.305
0.305
0.310
0.310
0.300
0.280
0.290
0.275
0.280
0.285
0.310
0.310
0.335
0.365
0.380
0.365
0.365
0.365
0.335
0.295
0.285
0.270
0.250
0.215
0.200
0.190
0.185
0.215
0.225
0.225
0.235
0.250
0.250
0.235
0.230
0.220
0.245
0.215
0.215
0.220
0.230
0.225
0.210
0.175
0.160
0.165
0.250
0.330
0.190
-0.240
-0.880
-1.520
-2.160
-2.800
-3.150
-2.950
-2.315
-1.680
-1.160
-0.820
-0.570
-0.390
-0.235
-0.110
-0.050
0.045
0.120
0.205
0.315
0.395
0.415
0.470
0.500
0.525
0.535
0.545
0.575
0.580
0.580
0.600
0.600
0.635
0.670
0.670
0.680
0.695
0.700
0.735
0.735
0.750
0.790
0.805
0.860
0.870
0.905
0.940
0.970
1.005
1.030
1.055
1.115
1.130
1.195
1.210
1.205
1.255
1.275
1.275
1.260
1.255
1.220
1.170
1.085
1.025
0.930
0.860
0.780
0.725
0.650
0.595
0.530
0.510
0.450
0.430
0.415
0.395
0.380
0.350
0.350
0.365
0.335
0.335
0.335
0.345
0.335
0.350
0.335
0.330
0.350
0.345
0.350
0.330
0.325
0.305
0.330
0.325
0.335
0.325
0.340
0.355
0.315
0.300
0.310
0.320
0.290
0.300
0.310
0.300
0.290
0.310
0.295
0.290
0.305
0.295
0.275
0.285
0.300
0.320
0.335
0.360
0.385
0.365
0.360
0.365
0.335
0.320
0.300
0.295
0.265
0.245
0.210
0.230
0.210
0.220
0.240
0.245
0.230
0.245
0.250
0.245
0.235
0.215
0.225
0.215
0.220
0.220
0.200
0.205
0.200
0.185
0.185
0.165
0.230
0.320
0.230
-0.150
-0.790
-1.430
-2.070
-2.710
-3.175
-3.085
-2.475
-1.840
-1.325
-0.960
-0.690
-0.465
-0.320
-0.185
-0.105
-0.020
0.045
0.170
0.265
0.320
0.390
0.415
0.445
0.465
0.475
0.515
0.510
0.540
0.535
0.530
0.560
0.565
0.600
0.590
0.615
0.610
0.640
0.635
0.660
0.715
0.715
0.720
0.760
0.785
0.795
0.845
0.885
0.915
0.960
1.005
1.040
1.050
1.095
1.110
1.130
1.135
1.165
1.150
1.150
1.115
1.090
1.050
0.940
0.905
0.860
0.740
0.685
0.625
0.525
0.485
0.440
0.420
0.350
0.325
0.305
0.295
0.275
0.290
0.265
0.250
0.240
0.250
0.240
0.240
0.230
0.230
0.255
0.230
0.260
0.250
0.260
0.240
0.255
0.255
0.235
0.235
0.240
0.250
0.240
0.240
0.220
0.215
0.215
0.220
0.205
0.205
0.190
0.175
0.185
0.175
0.160
0.180
0.165
0.175
0.145
0.155
0.185
0.210
0.230
0.225
0.250
0.275
0.240
0.230
0.210
0.185
0.180
0.165
0.140
0.125
0.120
0.100
0.100
0.120
0.140
0.140
0.115
0.120
0.120
0.125
0.095
0.100
0.110
0.105
0.090
0.095
0.110
0.100
0.095
0.095
0.065
0.055
0.110
0.195
0.170
-0.105
-0.675
-1.315
-1.955
-2.585
-3.040
-3.095
-2.640
-2.005
-1.475
-1.105
-0.805
-0.580
-0.390
-0.265
-0.175
-0.065
0.000
0.100
0.210
0.265
0.300
0.335
0.385
0.400
0.420
0.440
0.460
0.450
0.480
0.490
0.520
0.475
0.520
0.530
0.530
0.545
0.545
0.600
0.585
0.605
0.625
0.665
0.680
0.715
0.745
0.745
0.765
0.820
0.875
0.880
0.935
0.950
0.965
1.000
1.025
1.035
1.040
1.065
1.045
1.025
1.005
0.990
0.910
0.850
0.765
0.700
0.635
0.575
0.510
0.445
0.390
0.375
0.320
0.280
0.270
0.250
0.210
0.205
0.200
0.200
0.185
0.185
0.180
0.160
0.165
0.175
0.170
0.205
0.185
0.185
0.175
0.195
0.195
0.185
0.180
0.175
0.165
0.180
0.155
0.165
0.165
0.175
0.140
0.130
0.130
0.130
0.120
0.130
0.130
0.140
0.125
0.110
0.120
0.120
0.075
0.095
0.105
0.130
0.160
0.150
0.180
0.170
0.185
0.170
0.155
0.155
0.100
0.070
0.090
0.035
0.015
0.020
-0.020
0.005
0.010
0.040
0.030
0.010
0.025
0.035
0.020
0.025
-0.010
-0.010
-0.015
-0.025
-0.015
-0.020
-0.040
-0.050
-0.060
-0.085
-0.100
0.000
0.075
-0.070
-0.525
-1.165
-1.805
-2.445
-2.995
-3.315
-3.150
-2.520
-1.885
-1.435
-1.085
-0.830
-0.640
-0.510
-0.410
-0.315
-0.265
-0.160
-0.075
0.015
0.070
0.125
0.145
0.175
0.205
0.210
0.260
0.265
0.250
0.275
0.280
0.280
0.295
0.325
0.315
0.310
0.360
0.355
0.370
0.370
0.400
0.440
0.415
0.430
0.470
0.475
0.530
0.545
0.575
0.600
0.635
0.685
0.710
0.730
0.755
0.785
0.805
0.815
0.810
0.830
0.810
0.780
0.715
0.680
0.615
0.530
0.475
0.395
0.325
0.260
0.205
0.150
0.105
0.055
0.045
0.000
0.005
-0.020
-0.035
-0.060
-0.080
-0.080
-0.090
-0.070
-0.085
-0.070
-0.095
-0.080
-0.070
-0.100
-0.080
-0.065
-0.070
-0.070
-0.080
-0.085
-0.090
-0.105
-0.110
-0.100
-0.100
-0.095
-0.110
-0.125
-0.145
-0.140
-0.155
-0.160
-0.160
-0.160
-0.160
-0.170
-0.175
-0.130
-0.160
-0.170
-0.130
-0.145
-0.130
-0.115
-0.100
-0.070
-0.040
-0.070
-0.080
-0.095
-0.115
-0.145
-0.170
-0.195
-0.220
-0.240
-0.265
-0.265
-0.275
